mutant,mutated_sequence,DMS_score,DMS_score_bin,Site_Independent,EVmutation,DeepSequence_single,DeepSequence_ensemble,EVE_single,EVE_ensemble,Unirep,Unirep_evotune,MSA_Transformer_single,MSA_Transformer_ensemble,ESM1b,ESM1v_single,ESM1v_ensemble,ESM2_8M,ESM2_35M,ESM2_150M,ESM2_650M,ESM2_3B,ESM2_15B,Wavenet,RITA_s,RITA_m,RITA_l,RITA_xl,Progen2_small,Progen2_medium,Progen2_base,Progen2_large,Progen2_xlarge,GEMME,VESPA,VESPAl,VespaG,ProtGPT2,Tranception_S_no_retrieval,Tranception_M_no_retrieval,Tranception_L_no_retrieval,Tranception_S,Tranception_M,Tranception_L,TranceptEVE_S,TranceptEVE_M,TranceptEVE_L,CARP_38M,CARP_600K,CARP_640M,CARP_76M,MIF,MIFST,ESM-IF1,ProteinMPNN,ProtSSN_k10_h512,ProtSSN_k10_h768,ProtSSN_k10_h1280,ProtSSN_k20_h512,ProtSSN_k20_h768,ProtSSN_k20_h1280,ProtSSN_k30_h512,ProtSSN_k30_h768,ProtSSN_k30_h1280,ProtSSN_ensemble,SaProt_650M_AF2,SaProt_35M_AF2,PoET,MULAN_small,ProSST-20,ProSST-128,ProSST-512,ProSST-1024,ProSST-2048,ProSST-4096,ESCOTT,VenusREM,RSALOR,S2F,S2F_MSA,S3F,S3F_MSA,SiteRM,ESM3,ESMC-300M,ESMC-600M,xTrimoPGLM-1B-MLM,xTrimoPGLM-3B-MLM,xTrimoPGLM-10B-MLM,xTrimoPGLM-1B-CLM,xTrimoPGLM-3B-CLM,xTrimoPGLM-7B-CLM,xTrimoPGLM-100B-int4,Progen3_112m,Progen3_219m,Progen3_339m,Progen3_762m,Progen3_1b,Progen3_3b,num_mutations,dG,deltaG_95CI_low,deltaG_95CI_high,pair_name,recon_dg,thermodynamic_coupling,epistatic,symmetric_1,symmetric_2,symmetric_double,dG_std
A41C,KDPKFEAAYDFPGSGSSSELPLKKGDIVFISRDEPSGWSLCKLLDGSKEGWVPTAYMTPYK,-0.3510631664001649,1,-1.8454271408933705,-4.250877752590895,-2.6666717529296875,-2.50513916015625,-2.7580108642578125,-2.8662506103515626,-2.6628737,-2.6601396,-1.5156224966049194,-1.1481787443161011,-4.078359603881836,0.0897245407104492,-0.7195566892623901,-1.6272637844085691,-0.4389863014221191,-0.0677258968353271,-1.4508144855499268,-0.326540470123291,-5.183901309967041,-125.47094314575196,-5.155787229537964,-4.99969744682312,-5.108990669250488,-4.856303453445435,-0.0396799132937476,-0.0363833128459869,-0.0366354991519261,-0.0363174998571002,-0.0278900265693664,-4.45426154724373,-0.7082631974134307,-0.899618395191434,0.1132324320767837,-8.467782497406006,-0.0193756603803789,-0.0417464209384605,-0.0015172489353867,-0.0225185957111297,-0.0367260291928148,-0.0181734679175205,-0.0237948933585746,-0.0341711826011781,-0.0264901333167905,-2.0651681423187256,-2.1632847785949707,-0.969269871711731,-0.8782863616943359,-9.015233993530272,-7.087344169616699,-1.0578475702004355,-1.3619813919067385,-6.88072395324707,-6.338284969329834,-5.455711841583252,-6.906925678253174,-6.57489824295044,-6.088834285736084,-5.998155117034912,-7.2463836669921875,-6.938312530517578,-6.492025640275744,-3.024813652038574,-0.6833896040916443,-102.43204,-2.0133352279663086,-4.997019290924072,-4.253564834594727,-5.702940940856934,-6.871546268463135,-4.014306545257568,-7.444681167602539,-4.82497853259785,-0.8776521682739258,-3.589390256503714,-2.242574,1.14314,-2.555284,1.102792,-55.37068625252226,-5.625,0.25,-1.2578125,0.5979561805725098,-3.0784621834754944,-1.0008563995361328,-0.0606156646228228,-0.0266273373463117,-0.0352945796778945,-6.2978515625,-2.8008742,-2.7849834,-2.6867626,-2.6791334,-2.6826975,-2.5943263,1,1.903187152601573,1.8408240227759067,1.9632216160524592,,,,,,,,
A41F,KDPKFEAAYDFPGSGSSSELPLKKGDIVFISRDEPSGWSLFKLLDGSKEGWVPTAYMTPYK,-2.868691108870268,0,-6.48095501791962,-8.56530353340375,-7.1337890625,-7.04642333984375,-8.040557861328125,-7.976388549804687,-2.6588604,-2.6518106,-4.902972221374512,-4.895622825622558,-9.694275856018066,-5.09001350402832,-4.373926162719727,-2.287981033325196,-3.699462175369263,-3.2023568153381348,-6.044832229614258,-6.972528457641602,-13.071765899658203,-133.3053940582275,-5.227700710296631,-5.15709376335144,-5.20141863822937,-4.962935447692871,-0.0399710129177759,-0.0377458712411305,-0.0379189252853393,-0.0378711602044484,-0.0302612450387742,-9.56669415953415,-1.0530918741214266,-1.1282458772023043,0.019806319457153,-8.78266191482544,-0.0604558225537907,-0.0387461928070567,-0.0385326948322233,-0.093294237480789,-0.0856453317110654,-0.0823837030129355,-0.0846875925533107,-0.0847448755483157,-0.080049358430456,-4.002692222595215,-0.7100186347961426,-5.057985305786133,-4.191741943359375,-20.3716983795166,-14.725311279296877,-1.1541661747166367,-1.4534857273101809,-11.474035263061523,-11.054856300354004,-9.84941577911377,-9.478072166442873,-11.924552917480469,-9.983793258666992,-10.396978378295898,-12.56100082397461,-11.91336441040039,-10.959563467237684,-7.80820369720459,-3.664782285690308,-107.07482,-2.5822525024414062,-3.5891919136047363,-4.882113456726074,-6.878075122833252,-7.917223453521728,-11.488093376159668,-12.442663192749023,-9.72629956810943,-2.398167133331299,-7.907425294030837,-7.064789,-0.059113,-8.90778,-0.385505,-58.46423454292761,-14.390625,-5.8125,-6.0,-3.2629997730255127,-8.211522877216339,-7.326948165893555,-0.1385948306224382,-0.2151596819768189,-0.1673253794185449,-10.3291015625,-2.8160334,-2.7493358,-2.6898072,-2.6761584,-2.7344015,-2.63344,1,-0.6144407898685302,-0.7002835193736592,-0.5438122318370247,,,,,,,,
A41G,KDPKFEAAYDFPGSGSSSELPLKKGDIVFISRDEPSGWSLGKLLDGSKEGWVPTAYMTPYK,-1.7926286760687749,0,1.1859283758398351,-2.032663183665136,-1.6220550537109375,-1.2316375732421876,-1.1375274658203125,-1.61636962890625,-2.612089,-2.6467237,-0.695594310760498,-0.6002516865730285,-5.866920471191406,-0.0114808082580566,-0.8187695264816284,0.9601731896400452,-0.552013635635376,-1.1958327293395996,-1.5249505043029783,-0.581089973449707,-1.4966926574707031,-124.30308465576172,-5.068495035171509,-4.994808435440064,-5.0109922885894775,-4.757715702056885,-0.039238655377948,-0.0355193236517527,-0.0358117686377631,-0.0362091594272189,-0.0270721950228252,-0.315538855488879,-0.6331594433313662,-0.899618395191434,0.057792068296027,-8.72815203666687,-0.0175418541079659,0.032269962498399,0.0268263269643316,0.0063936827612705,0.0192186949683017,0.0184108546522796,-0.0094258667992763,-0.0152606651431224,-0.013772620529425,0.947446882724762,-0.2130300998687744,-0.5325899124145508,0.8747384548187256,-10.062826156616213,-4.435903072357178,-1.0067666475890114,-1.388740062713623,-7.428005695343018,-8.286629676818848,-8.189250946044922,-8.525139808654785,-8.451457023620605,-7.706664562225342,-7.52223014831543,-7.203145503997803,-6.503811359405518,-7.757370630900065,-2.340670585632324,-1.1139456033706665,-101.49856,-0.9596214294433594,-2.19778060913086,-1.3096919059753418,-1.0479750633239746,-5.819667816162109,-1.9056329727172847,-1.6091318130493164,-0.509393308996243,0.1123073101043701,-1.2589963244519344,-2.301061,1.298794,-3.217209,1.179002,-54.18132411141576,-4.21875,1.5,-0.875,0.8264827728271484,-1.3153348565101624,-1.15264892578125,0.0062058245549438,-0.0184233618564295,-0.1048971707703638,0.2890625,-2.8243732,-2.757986,-2.6695957,-2.6176884,-2.6882951,-2.6156423,1,0.4616216429329629,0.4344621258749941,0.4891713262652621,,,,,,,,
A41I,KDPKFEAAYDFPGSGSSSELPLKKGDIVFISRDEPSGWSLIKLLDGSKEGWVPTAYMTPYK,-2.686451240303616,0,-2.63808199822987,-7.293433152238322,-3.490692138671875,-3.4995269775390625,-3.7656097412109375,-4.212319946289062,-2.63561,-2.5903285,-2.9882707595825195,-3.078930950164795,-6.07865047454834,-2.6524734497070312,-1.097826600074768,-1.9387824535369875,-0.943655252456665,0.840172529220581,-2.920424461364746,-4.479557037353516,-9.84885597229004,-129.9690728302002,-5.260842323303223,-5.043588638305664,-5.108888387680054,-4.892393112182617,-0.0395821181554642,-0.0366609247903975,-0.036908677646092,-0.0371230500085013,-0.0287971931790548,-5.08828887046943,-0.8560145033913924,-1.010206111537245,0.0838090492209703,-8.716850757598877,0.0008758795065957,-0.0031631970014729,-0.0180420172019082,-0.0296993568295338,-0.0331307082879737,-0.0361848424692623,-0.0384305109743212,-0.0419020730941021,-0.0390900783851498,-3.252217054367065,-0.2304060459136963,-2.7078490257263184,-0.8325681686401367,-19.48360061645508,-14.851478576660156,-1.186522436923668,-1.4720393419265747,-7.538901329040527,-7.2754645347595215,-7.339418411254883,-5.605752468109131,-8.951186180114746,-8.131542205810547,-6.008902072906494,-10.480420112609863,-8.242712020874023,-7.730477756924099,-5.637595653533936,-1.3366777896881104,-104.50557,-0.7929670810699463,-4.418279647827148,-4.900381088256836,-4.48757791519165,-8.618535041809082,-8.381624221801758,-10.049901962280272,-5.27471261555108,-1.7562646865844729,-4.278612749879554,-4.195131,0.750168,-5.438074,0.55365,-56.69042189913085,-13.265625,-2.5,-2.0,-1.945759534835816,-4.425913631916046,-2.745152473449707,-0.0773720663101946,-0.0167171290663423,0.0237354216028431,-4.8876953125,-2.7799277,-2.7166755,-2.6712527,-2.6853623,-2.7230992,-2.6370192,1,-0.4322009213018782,-0.5259841882468524,-0.4138274899449794,,,,,,,,
A41L,KDPKFEAAYDFPGSGSSSELPLKKGDIVFISRDEPSGWSLLKLLDGSKEGWVPTAYMTPYK,-2.345301671513089,0,-4.584464638973521,-7.244417627858638,-5.349411010742188,-5.058856201171875,-5.5969085693359375,-6.088748168945313,-2.6443045,-2.6236124,-4.528002738952637,-4.612502193450927,-7.334240913391113,-3.851863384246826,-2.438677167892456,-2.055943489074707,-2.3587982654571533,-1.440791130065918,-5.395398139953613,-5.981983184814453,-9.943977355957031,-130.4918327484131,-5.273547649383545,-5.087496042251587,-5.135712385177612,-4.925639152526856,-0.0399170319239298,-0.0370757996089874,-0.0371441576215955,-0.0373653438356187,-0.0291847605553884,-5.96540587110952,-0.9214426020688634,-1.010206111537245,0.0741169903161904,-8.76328158378601,-0.0145560092613343,-0.0212572441726435,-0.0261571915423282,-0.0537645934058017,-0.0601353879834785,-0.05799427970511,-0.0594202260502049,-0.0661491018826843,-0.0605575061235271,-3.371654748916626,0.10536789894104,-3.731149196624756,-2.277313470840454,-17.210662841796875,-12.536714553833008,-1.181048408883517,-1.467638611793518,-8.888919830322266,-8.664649963378906,-8.216407775878906,-7.557571887969971,-10.858449935913086,-9.316999435424805,-7.526805400848389,-12.08368682861328,-9.500371932983398,-9.179318110148111,-7.629775047302246,-4.2481536865234375,-105.053444,-0.6500768065452576,-2.6526029109954834,-4.558065414428711,-5.289356231689453,-9.610187530517578,-10.969404220581056,-9.375654220581056,-6.35684017613987,-2.2939915657043457,-7.907425294030837,-4.830809,0.435601,-7.51879,0.039874,-57.186641660344016,-13.453125,-4.1875,-5.0,-3.956009149551392,-6.465711891651154,-5.504184722900391,-0.1164608314389088,-0.147525474673412,-0.1201859771228228,-9.2119140625,-2.794815,-2.7446163,-2.689796,-2.6573987,-2.7557518,-2.6438913,1,-0.0910513525113515,-0.1743214696537922,-0.0418577390759966,,,,,,,,
A41M,KDPKFEAAYDFPGSGSSSELPLKKGDIVFISRDEPSGWSLMKLLDGSKEGWVPTAYMTPYK,-2.7344004454088164,0,-4.390948914004686,-7.060357407366155,-4.865509033203125,-4.876553344726562,-5.8388519287109375,-5.785177612304688,-2.6757088,-2.644764,-4.478236675262451,-4.656281757354736,-8.283771514892578,-4.952566146850586,-3.692002201080322,-2.6516048908233643,-3.019458055496216,-3.132026672363281,-5.552308082580566,-6.188440322875977,-10.30429458618164,-129.6590220489502,-5.289722442626953,-5.131404638290405,-5.162490129470825,-4.924831867218018,-0.0400689442952474,-0.0370045067772032,-0.0373832460433717,-0.0375452495756603,-0.0288957395250835,-5.40205155131701,-0.9465970565845564,-1.010206111537245,0.0553617634656041,-8.758015394210815,-0.0307554651479251,-0.0418443523469516,-0.0427771396324281,-0.0558836890048668,-0.063728082375448,-0.0602843487849,-0.0566879647677062,-0.0634015818111232,-0.0578350004602651,-4.2875165939331055,-1.1873550415039062,-4.904605388641357,-3.0713531970977783,-15.532684326171877,-12.238666534423828,-1.128771047123143,-1.457361936569214,-8.533525466918945,-9.08839225769043,-8.746606826782227,-8.99757194519043,-10.557746887207031,-10.367846488952637,-9.913476943969728,-10.738409042358398,-10.610247611999512,-9.728202713860403,-6.957801342010498,-4.279687404632568,-106.08716,-2.165253162384033,-5.44182825088501,-7.805722236633301,-7.738467216491699,-8.152924537658691,-11.307933807373049,-11.734088897705078,-5.61346670263904,-2.362013339996338,-6.636325549330941,-4.820889,0.476103,-7.640058,0.063514,-57.40098117480253,-12.1015625,-4.3125,-5.25,-4.74250340461731,-6.745646774768829,-6.612722396850586,-0.1196859391009219,-0.2587710521260247,-0.079562828189037,-8.7666015625,-2.818692,-2.7767754,-2.6988559,-2.675712,-2.7637587,-2.6428704,1,-0.4801501264070786,-0.7296127543807406,-0.3050125010662153,,,,,,,,
A41V,KDPKFEAAYDFPGSGSSSELPLKKGDIVFISRDEPSGWSLVKLLDGSKEGWVPTAYMTPYK,-0.5804202537277641,1,-0.4953825170489745,-5.592023939880164,-1.0180816650390625,-1.1091400146484376,-1.8614349365234373,-1.7603790283203125,-2.6185193,-2.5612383,-0.4309258460998535,-0.4871638298034668,-3.3781938552856445,0.1849169731140136,0.9811749935150148,-0.6415798664093018,1.0823094844818115,2.7541720867156982,-0.4105701446533203,-2.0389604568481445,-6.917187690734863,-125.92060876464843,-5.173030138015747,-4.993581295013428,-5.052095413208008,-4.835956811904907,-0.0390635728836059,-0.0359068295312306,-0.0360349208589584,-0.0364125702116224,-0.0277631027357918,-4.42340793759787,-0.6601646718020338,-0.899618395191434,0.1490917106769629,-8.631221532821655,0.0298924680616035,0.0173937688108349,0.0057534389808531,0.0043219894659323,-0.0015746570024333,-0.0041751548892161,-0.0132000407234567,-0.0159466227547065,-0.0140466533723425,-1.1605513095855713,0.2787072658538818,0.1711368560791015,1.438424825668335,-13.98353385925293,-9.1743745803833,-1.135637752345351,-1.3769090175628662,-4.617112159729004,-5.342721462249756,-5.377049922943115,-4.234663009643555,-6.9942402839660645,-5.7526021003723145,-4.174449920654297,-7.782469272613525,-5.999020576477051,-5.586036576165093,-2.654670000076294,0.8630025386810303,-101.470856,0.299290120601654,-2.861403226852417,-0.980454444885254,-0.92733234167099,-4.4276323318481445,-4.355294227600098,-3.5389742851257324,-4.76357207265461,-0.9152500629425048,-2.68556881967726,-0.967507,1.4292,-0.935575,1.456693,-54.26370416910241,-8.25,0.125,0.125,0.6886920928955078,-1.5807233452796936,0.2264958024024963,-0.0382875536308913,0.0445329009509474,0.0746905217405227,-0.3828125,-2.7642202,-2.6988473,-2.6592274,-2.659685,-2.6953998,-2.5941372,1,1.6738300652739737,1.6088709385456277,1.7354312959288312,,,,,,,,
A41W,KDPKFEAAYDFPGSGSSSELPLKKGDIVFISRDEPSGWSLWKLLDGSKEGWVPTAYMTPYK,-2.071594184791329,0,-9.329128272793156,-10.59497516152706,-8.067886352539062,-8.052365112304688,-8.734588623046875,-8.635665893554688,-2.6752272,-2.7238343,-7.228126049041748,-6.9724713325500485,-11.142362594604492,-6.53121280670166,-6.1217811584472654,-1.874762296676636,-5.964229583740234,-6.709939479827881,-8.288488388061523,-8.9031343460083,-13.340316772460938,-133.89796159362794,-5.236613750457764,-5.151983737945557,-5.30595588684082,-5.100530862808228,-0.0401187321496388,-0.0386757131606813,-0.0391998234249296,-0.0386227709906441,-0.033005708739871,-9.28689017659224,-1.253297348487088,-1.2533198721984955,0.0109317684080403,-8.641898393630981,-0.0772209792840674,-0.0646613699490907,-0.0475671486776383,-0.1207222860367571,-0.1195561143218493,-0.1082412219438395,-0.0909340655217404,-0.0962036007740457,-0.0878771797555392,-3.6465017795562735,-1.3874945640563965,-6.8322343826293945,-5.541105270385742,-21.21444320678711,-16.30621337890625,-1.1827845338915215,-1.457058310508728,-12.9624662399292,-10.449297904968262,-10.33561897277832,-9.610261917114258,-11.693511009216309,-12.539935111999512,-12.198474884033203,-15.24083137512207,-13.261961936950684,-12.032484584384497,-9.374138832092283,-7.343522548675537,-108.948586,-2.9334402084350586,-4.265271663665772,-8.571826934814453,-8.802512168884277,-12.282630920410156,-14.460980415344238,-14.77024269104004,-9.80552982192512,-2.992753505706787,-7.907425294030837,-8.882078,-0.34784,-10.845123,-0.722713,-60.27346536739319,-16.625,-6.40625,-8.1875,-6.431350946426392,-10.165217220783234,-10.331567764282228,-0.1075667084240521,-0.2748313028304303,-0.1681998831326843,-12.3447265625,-2.8398447,-2.7423449,-2.7214828,-2.6658916,-2.7634118,-2.6686792,1,0.1826561342104087,0.1128372691830647,0.2371256013241013,,,,,,,,
A41Y,KDPKFEAAYDFPGSGSSSELPLKKGDIVFISRDEPSGWSLYKLLDGSKEGWVPTAYMTPYK,-2.37351772375426,0,-7.55122282445789,-9.870052653533776,-10.222442626953123,-9.849368286132812,-12.334197998046877,-12.09598388671875,-2.6793888,-2.6654255,-5.186276435852051,-4.93851318359375,-9.773801803588867,-5.3249993324279785,-4.631826400756836,-2.4660494327545166,-5.335366249084473,-5.159374713897705,-7.595436096191406,-9.047746658325195,-14.034069061279297,-133.65353262329103,-5.213688611984253,-5.180141925811768,-5.246623277664185,-5.003606081008911,-0.0401293739439949,-0.0379676137651716,-0.0383583780318971,-0.0380759031053573,-0.0309846107921903,-10.3870175697436,-1.1226217048115152,-1.1282458772023043,0.0128602726357322,-8.767735481262207,-0.0542942735015368,-0.0354828131003457,-0.041056273413486,-0.1218670704325692,-0.1150320084368594,-0.1142843277727971,-0.0953952601698577,-0.0952868852459015,-0.0914773784699988,-3.2799808979034424,-0.5834908485412598,-6.139628887176514,-4.881889343261719,-20.28317642211914,-14.98979949951172,-1.1713659567911117,-1.467403531074524,-11.735957145690918,-10.17263126373291,-9.56194305419922,-8.609278678894043,-10.61014461517334,-10.887300491333008,-11.287436485290527,-12.453375816345217,-12.375308990478516,-10.854819827609592,-8.276537895202637,-3.436934232711792,-107.766525,-2.1544229984283447,-4.569759368896484,-7.59328556060791,-7.662403106689453,-9.045157432556152,-11.777366638183594,-13.298210144042969,-10.8945486445824,-2.45603609085083,-7.907425294030837,-7.58961,-0.652372,-9.247129,-0.964169,-58.81114634240229,-15.84375,-6.09375,-6.8125,-4.965029954910278,-9.555873692035677,-9.160521507263184,-0.1099675913326074,-0.2215728759765625,-0.0929462870613475,-12.1650390625,-2.8274982,-2.755294,-2.6993608,-2.6561487,-2.7442997,-2.6388679,1,-0.1192674047525217,-0.1382750605934891,-0.0940561600781023,,,,,,,,
A55C,KDPKFEAAYDFPGSGSSSELPLKKGDIVFISRDEPSGWSLAKLLDGSKEGWVPTCYMTPYK,0.4195799908814912,1,-2.3662387177533413,-6.145630749805605,-5.568405151367188,-6.132711791992188,-6.630874633789063,-6.454489135742188,-2.6943278,-2.4372406,-2.436776876449585,-2.5464316844940185,-6.665083408355713,-2.488391160964966,-2.391194534301758,-3.311194658279419,-2.1050033569335938,-2.468989372253418,-3.067391395568848,-5.425761222839356,-10.198320388793944,-126.4732709197998,-5.200042486190796,-5.123645067214966,-5.131169080734253,-4.808684825897217,-0.0397077023036896,-0.0367570339687286,-0.0371657723472231,-0.0369654042380196,-0.0277286928797525,-4.36250355850391,-0.6027478951680623,-0.5960645827669913,0.0802554425240687,-8.581946849822998,-0.0714220140801098,-0.0446023159339779,-0.0453548744076588,-0.0568685062596054,-0.0438364998238984,-0.0485964915791496,-0.0651672238209208,-0.0595691868516264,-0.0664049992795851,-2.5322537422180176,-1.7103440761566162,-2.62685489654541,-3.140949249267578,-7.325260162353516,-6.804197311401367,-1.0019654445960873,-1.3256604671478271,-10.292920112609863,-9.746395111083984,-10.335616111755373,-10.645811080932615,-9.266375541687012,-10.010732650756836,-9.805733680725098,-9.72076416015625,-8.314494132995605,-9.793204731411404,-3.3600523471832275,-2.082483530044556,-104.030045,-2.233458995819092,-2.657678604125977,-0.4069821834564209,-2.9911131858825684,-0.8367159366607666,-3.5438928604125977,-5.29637622833252,-3.6460314050024,-0.7389516830444336,-1.1993386710326273,-4.843011,0.386776,-4.259115,0.415837,-55.7966948658224,-3.625,-3.5,-3.671875,-3.834541440010071,-4.642800807952881,-5.361388623714447,-0.0209865882748463,-0.0979901923507942,-0.1425468569896262,-9.26104736328125,-2.8610363,-2.816618,-2.734906,-2.6783566,-2.7287655,-2.6182494,1,2.673830309883229,2.6035920590733177,2.701645442879425,,,,,,,,
A55D,KDPKFEAAYDFPGSGSSSELPLKKGDIVFISRDEPSGWSLAKLLDGSKEGWVPTDYMTPYK,-0.6258155378570756,1,-1.4986622639474292,-4.0286823403439485,-4.2188262939453125,-4.667471313476563,-4.3081817626953125,-3.999295043945312,-2.6348772,-2.4628901,-0.9138057231903076,-0.837178087234497,-5.384357452392578,-0.8158352375030518,-0.9188644409179688,0.3135406970977783,-0.8534336090087891,-2.436752319335937,-2.3914337158203125,-4.957823276519775,-10.329242706298828,-127.41075830078124,-5.132993459701538,-5.030781030654907,-5.116706371307373,-4.740888833999634,-0.0394621122451055,-0.0359482065079704,-0.0364445428999643,-0.0364883702898782,-0.0278370673694307,-3.46491482629896,-0.6929950868719055,-0.773843756229763,0.0402238207677934,-8.597158670425415,-0.0659628696128968,-0.006500244140625,-0.0030859024798284,-0.0439748295017932,-0.0129420796378714,-0.0182300004802766,-0.0446661652111617,-0.0281958658187114,-0.0378815072481749,-0.4818410873413086,-0.1436104774475097,-2.082089900970459,-0.3261852264404297,-4.292738914489746,-6.428154468536377,-0.9422696223024464,-1.3351294994354248,-7.489718914031982,-7.670682907104492,-7.506377696990967,-8.418986320495605,-8.208468437194824,-8.273317337036133,-7.687458515167236,-7.104461193084717,-7.252440452575684,-7.734656810760498,-3.718588352203369,-0.7679018974304199,-103.48542,-0.3121907413005829,-1.6947784423828125,-1.2698252201080322,-3.2039570808410645,-1.6176040172576904,-3.734744548797608,-4.858267784118652,-2.99337457923595,-0.771259069442749,-0.907044854757764,-2.308111,0.988783,-2.732141,0.932788,-55.49557998475564,-2.24609375,-2.5625,-1.3125,-1.0616430044174194,-3.428800106048584,-7.8288721442222595,-0.006198070088371,-0.0837024626184681,0.0209525686795593,-7.47979736328125,-2.7995257,-2.7998881,-2.6875968,-2.6410856,-2.6974797,-2.582127,1,1.6284347811446622,1.575041899035713,1.6625038233439475,,,,,,,,
A55E,KDPKFEAAYDFPGSGSSSELPLKKGDIVFISRDEPSGWSLAKLLDGSKEGWVPTEYMTPYK,-0.695101120277404,1,-1.7579925519356712,-5.926401257853286,-4.596237182617188,-5.070849609375001,-5.160415649414063,-4.570306396484375,-2.6328905,-2.4407513,-0.6618683338165283,-1.1438475608825684,-6.065435886383057,-0.7457988262176514,-1.0200050830841063,0.264756441116333,-1.115396499633789,-2.5122199058532715,-3.107034206390381,-5.6638946533203125,-10.993931770324709,-126.31261819458008,-5.162258148193359,-5.05239725112915,-5.069303274154663,-4.722740888595581,-0.0388532460681975,-0.0358246564865112,-0.0363181848374624,-0.0362656040797157,-0.0282185115511455,-3.85950141510992,-0.6545545745672278,-0.6809058034283257,0.0366102793980509,-8.597042560577393,-0.0768382588370901,0.0051415865538551,0.0050950597544185,-0.0542154781153945,-0.0119876548892159,-0.0177714863761526,-0.0555675068839651,-0.0336156125928533,-0.0423216897933209,-0.8331007957458496,0.0307247638702392,-2.1881890296936035,-0.3498439788818359,-2.602428913116455,-5.14857292175293,-0.9396326033795466,-1.3225162029266355,-7.942581176757812,-7.641078948974609,-7.568299770355225,-7.777884483337402,-8.71561336517334,-8.115466117858887,-7.712189674377441,-7.16459321975708,-7.2888383865356445,-7.76961628595988,-2.746802806854248,-1.4532285928726196,-103.39092,-0.1037738025188446,-1.4389171600341797,-0.9491097927093506,-2.841057300567627,0.1387832164764404,-3.2099533081054688,-3.6750874519348153,-3.16633601151228,-0.6687226295471191,-1.1822957120397244,-2.843854,0.854788,-2.835003,0.845329,-55.18593164306049,-2.3515625,-2.375,-1.375,-1.3462311029434204,-2.903017997741699,-7.696638524532318,-0.0215641709624745,-0.0540283703413169,0.0472532178534836,-8.29229736328125,-2.8068085,-2.780065,-2.6861115,-2.6390831,-2.7072368,-2.5920963,1,1.5591491987243338,1.4967500523467074,1.5993299237119385,,,,,,,,
A55F,KDPKFEAAYDFPGSGSSSELPLKKGDIVFISRDEPSGWSLAKLLDGSKEGWVPTFYMTPYK,-0.9792062382338682,1,-4.4404718874948745,-8.197459993946097,-7.357101440429687,-7.695864868164063,-7.310958862304687,-7.3530120849609375,-2.6835923,-2.4656632,-3.3073747158050537,-3.011285638809204,-8.147466659545898,-2.443422555923462,-3.2462557315826417,-2.6428167819976807,-2.0142970085144043,-3.109055519104004,-5.128116130828857,-6.344243049621582,-13.663129806518556,-132.0085676879883,-5.216999530792236,-5.12738299369812,-5.205259084701538,-4.839954614639282,-0.0401194890340169,-0.0372293449583507,-0.0365411156699771,-0.0374159056042868,-0.0293921213301401,-7.00516681901169,-0.7948423221615523,-0.773843756229763,0.0145765704769295,-8.58648419380188,-0.1548514444319928,-0.0600425845286884,-0.0458901827452613,-0.1191163610239498,-0.0752287067350792,-0.0740475263751923,-0.0965252860647734,-0.0787462953661308,-0.0841372755707288,-2.876028537750244,-0.4547069072723388,-2.80483341217041,-3.2862424850463867,-5.19027042388916,-6.896315097808838,-0.9977457015240778,-1.3667830228805542,-10.353928565979004,-10.882343292236328,-10.49134635925293,-11.064645767211914,-10.272697448730469,-10.490453720092772,-10.047662734985352,-10.698493003845217,-10.057106971740724,-10.484297540452744,-4.847247123718262,-2.342677593231201,-105.90577,-2.239213466644287,-2.565049171447754,-0.390779972076416,-2.9784579277038574,-2.1888420581817627,-3.8658132553100586,-5.042088985443115,-5.53045782034267,-0.8052699565887451,-2.1396872490285315,-4.897058,0.264136,-4.791613,0.230069,-57.21888102888491,-5.3203125,-4.0,-3.984375,-4.193957448005676,-6.487234592437744,-8.631784856319427,-0.0328469198258196,-0.1303813496574029,-0.0521190205558403,-10.99542236328125,-2.8417313,-2.8288667,-2.6944284,-2.7565112,-2.7175977,-2.6286716,1,1.2750440807678696,1.2543002651401605,1.300561254475178,,,,,,,,
A55G,KDPKFEAAYDFPGSGSSSELPLKKGDIVFISRDEPSGWSLAKLLDGSKEGWVPTGYMTPYK,-0.8358631136796946,1,-1.9647515351714653,-5.504180563897535,-5.522064208984375,-4.956304931640625,-5.971954345703125,-5.195343017578125,-2.6521819,-2.558231,-1.7818150520324707,-1.4287437438964845,-4.78537130355835,-0.5636575222015381,-0.6085151195526123,-0.4527785778045654,-0.4788832664489746,-1.679487705230713,-1.026021957397461,-2.577683448791504,-7.118887424468994,-130.16700358581542,-5.138632774353027,-4.953871965408325,-5.136130809783936,-4.756831407546997,-0.0392481334625728,-0.0362022339351593,-0.036688556746831,-0.0365821671864343,-0.0276593528096638,-5.71208022305279,-0.5077269954422546,-0.5960645827669913,0.0760173001171144,-8.49220895767212,-0.0871535754594645,-0.0356407790887551,-0.0049384695584657,-0.0566008520908043,-0.0365923271804558,-0.0230900498687243,-0.0558479809370197,-0.0520462911637101,-0.0472044397573002,-0.6453988552093506,0.2516665458679199,-1.5622955560684204,-1.3871827125549316,-4.418979644775391,-7.0080180168151855,-0.927448085097016,-1.328690767288208,-5.776611804962158,-5.944448947906494,-6.506848335266113,-6.78482723236084,-6.318617820739746,-7.147650241851807,-6.998157501220703,-5.929861068725586,-6.264030933380127,-6.407894982231988,-1.1710726022720337,-0.4586255550384521,-102.79635,-0.1499431133270263,-0.9123623371124268,-1.2850444316864014,-2.248663902282715,-0.9630625247955322,-3.1967406272888184,-4.337461471557617,-4.73672892877012,-0.6680002212524414,-2.0356271714138874,-1.335676,0.942296,-1.692047,0.912688,-54.7401113658721,-1.6513671875,-2.4375,-1.1875,-1.178174614906311,-1.7320480346679688,-2.6224741339683533,-0.0103747258420852,-0.1642386014344263,-0.082305908203125,-5.30792236328125,-2.8216467,-2.8036218,-2.677959,-2.6929717,-2.700675,-2.6096663,1,1.4183872053220432,1.3679139625498344,1.5471499881076851,,,,,,,,
A55H,KDPKFEAAYDFPGSGSSSELPLKKGDIVFISRDEPSGWSLAKLLDGSKEGWVPTHYMTPYK,-0.1335189480157037,1,-3.297346731643384,-7.092792319232103,-6.0308685302734375,-6.295965576171875,-6.4595489501953125,-6.334689331054688,-2.6600966,-2.4772055,-2.7835681438446045,-2.197271490097046,-6.761344909667969,-1.861794710159301,-2.353720283508301,-1.4647786617279053,-1.3926506042480469,-2.857649803161621,-4.099724769592285,-5.655121803283691,-12.384583473205566,-128.58301055908203,-5.24964451789856,-5.105348825454712,-5.09434962272644,-4.786470651626587,-0.0394191931164453,-0.0363092744161212,-0.0361943907207912,-0.0364948662500532,-0.0271000067392985,-4.38812152119073,-0.7513347272466475,-0.773843756229763,0.0386558532306375,-8.641031742095947,-0.0792402673940186,-0.0149612426757812,-0.0275806364465931,-0.0671514292232324,-0.0375247392498077,-0.0461999861920465,-0.0685610536669121,-0.0568168515064676,-0.0635940676829853,-1.4764971733093262,-1.041715145111084,-2.8759841918945312,-2.232494354248047,-4.9206366539001465,-6.433798789978027,-0.977236575767642,-1.3431676626205444,-10.388714790344238,-9.362127304077148,-9.94549560546875,-10.012582778930664,-9.689162254333496,-8.626648902893066,-9.59044361114502,-10.095060348510742,-9.350960731506348,-9.673466470506456,-4.062597274780273,-0.1003705263137817,-104.84802,-1.2062277793884275,-1.6808433532714844,-1.5601046085357666,-3.650499820709229,-1.3966810703277588,-4.243348121643066,-5.038279533386231,-5.43176701178316,-0.8804008960723877,-2.1396872490285315,-3.37202,0.566781,-3.838288,0.486047,-57.48594152479152,-4.2578125,-3.75,-3.546875,-3.2066575288772583,-4.713107585906982,-8.246859014034271,-0.0462796570824792,-0.1015174740650617,-0.0045591260566086,-10.40948486328125,-2.8130884,-2.7934303,-2.6905484,-2.6796517,-2.7017775,-2.5816133,1,2.120731370986034,2.083054318978846,2.162287220941804,,,,,,,,
A55I,KDPKFEAAYDFPGSGSSSELPLKKGDIVFISRDEPSGWSLAKLLDGSKEGWVPTIYMTPYK,-0.6113425997353861,1,-2.324072472004889,-6.265822447311621,-5.369064331054688,-5.977978515625,-6.422164916992188,-6.18094482421875,-2.6805465,-2.457764,-2.4097611904144287,-1.823464012145996,-7.549653053283691,-1.805323839187622,-2.472639274597168,-2.68615460395813,-2.328175544738769,-2.5381460189819336,-3.066179275512696,-5.166025638580322,-10.71949291229248,-127.87257362365725,-5.197935581207275,-5.087889671325684,-5.202749490737915,-4.76078724861145,-0.039279646343655,-0.0371714981775435,-0.0368032587899102,-0.0372700066793532,-0.0292583694533696,-5.45497355437256,-0.651630488179437,-0.6809058034283257,0.0183476949138055,-8.711903810501099,-0.1818055950227328,-0.0606844542456452,-0.0324902143634733,-0.1059060018570698,-0.0496508488889599,-0.0408415247182376,-0.086467180095735,-0.0631819553062563,-0.0641368178070569,-2.501548290252685,-0.1359658241271972,-2.871103286743164,-2.5332555770874023,-5.892254829406738,-6.372360706329346,-0.9915298086697938,-1.295027494430542,-9.46300983428955,-9.197076797485352,-9.236783027648926,-9.628789901733398,-9.502484321594238,-9.075570106506348,-8.41030216217041,-9.11366081237793,-9.671488761901855,-9.255462964375814,-3.210320234298706,-2.096022605895996,-104.0892,-3.134442090988159,-2.214301109313965,-0.9155373573303224,-2.6367387771606445,-0.8524196147918701,-2.3144092559814453,-6.353300094604492,-4.51143929149917,-0.4942684173583984,-2.1396872490285315,-3.53036,0.569029,-3.568606,0.541029,-56.26305708627965,-2.890625,-3.6875,-2.796875,-3.121782898902893,-4.085976123809815,-6.628939568996429,-0.0177564777311731,-0.0536436487416751,-0.0621327884861679,-8.69073486328125,-2.830858,-2.8215947,-2.688344,-2.720442,-2.757696,-2.6149454,1,1.6429077192663517,1.582390525854375,1.7178779373372826,,,,,,,,
A55K,KDPKFEAAYDFPGSGSSSELPLKKGDIVFISRDEPSGWSLAKLLDGSKEGWVPTKYMTPYK,-0.2481503445769539,1,-1.6480030082990762,-6.338354756599074,-5.302780151367188,-5.641326904296875,-5.95855712890625,-5.533059692382812,-2.6477807,-2.4732964,-2.589329957962036,-1.900498914718628,-5.83656120300293,-0.2824001312255859,-1.1014700889587403,0.5248415470123291,-0.9063222408294678,-1.6650431156158447,-1.2210140228271484,-4.374658584594727,-11.70572280883789,-126.3700672454834,-5.170408010482788,-5.0054004192352295,-5.049748420715332,-4.761052370071411,-0.0386192628315516,-0.0360010029777648,-0.0361779890363178,-0.0365151734579177,-0.0278295496153453,-5.33981038768852,-0.6534265397028812,-0.6809058034283257,0.0286091851469275,-8.748183965682983,-0.0879123875352201,0.0077534659964138,0.0028041151703381,-0.0548774844310322,-0.0087716774862318,-0.0152122622630634,-0.0615927899470094,-0.0407308359615137,-0.0479786982301806,-0.4427278041839599,-0.1332876682281494,-2.238651752471924,-0.4956369400024414,-2.236679792404175,-5.906094074249268,-0.9325966756851948,-1.3023954629898071,-7.146324634552002,-6.455796718597412,-6.416903972625732,-6.133692264556885,-7.317898273468018,-5.942035675048828,-5.942119598388672,-7.240789890289307,-6.671250820159912,-6.585201528337267,-0.1702203005552292,-0.6268033385276794,-104.4213,-0.2530731856822967,-0.0451326370239257,1.0117595195770264,-0.8534219264984131,0.0323655605316162,-3.492788791656494,-3.981260776519776,-4.51336422744687,-0.7158403396606445,-1.3973777468999935,-2.131256,0.809525,-1.945435,0.835949,-55.73670766476508,-2.84375,-2.0625,-2.359375,-0.6056638956069946,-0.618156909942627,-7.043694913387299,0.0033271664478742,-0.0370035640528945,0.0610431608606556,-7.71807861328125,-2.7989998,-2.7940207,-2.6809793,-2.6631074,-2.6961553,-2.5721536,1,2.006099974424784,1.9705548557672383,2.068671981442249,,,,,,,,
A55L,KDPKFEAAYDFPGSGSSSELPLKKGDIVFISRDEPSGWSLAKLLDGSKEGWVPTLYMTPYK,-0.7170563456834151,1,-2.3082373452132496,-6.460783590620849,-5.7548675537109375,-6.038885498046875,-5.733169555664063,-5.876821899414063,-2.6616683,-2.4593315,-2.5019567012786865,-1.8832345962524413,-7.345535755157471,-1.7573797702789309,-2.64440803527832,-2.144194841384888,-2.072762966156006,-2.847203254699707,-3.5294675827026367,-4.902772903442383,-12.289779663085938,-127.59946022033692,-5.19780421257019,-5.077500820159912,-5.175704002380371,-4.801383256912232,-0.0393784121861533,-0.0370675060484144,-0.0367435935943845,-0.0373480679496886,-0.0292634613930232,-4.99557026895252,-0.676406237484147,-0.6809058034283257,0.0213483406782624,-8.558275938034058,-0.1849387747342468,-0.0601869176645748,-0.0290961343733988,-0.106508098664831,-0.0475026115042263,-0.038003014736488,-0.084372661152824,-0.0587422730492762,-0.060105245621478,-2.342880725860596,0.1771080493927002,-2.850466728210449,-2.499199390411377,-6.61096715927124,-6.959434986114502,-0.9718796151583312,-1.3303898572921753,-10.442471504211426,-9.786177635192873,-10.012917518615724,-9.965123176574709,-9.768799781799316,-9.458117485046388,-8.652449607849121,-9.75810432434082,-10.052746772766112,-9.766323301527237,-2.823882341384888,-2.249257326126098,-104.28219,-2.2389376163482666,-3.117839813232422,-2.050744771957397,-3.016894817352295,-1.2587878704071045,-3.707663536071777,-6.591037273406982,-4.14071259436201,-0.7656841278076172,-2.1396872490285315,-3.390137,0.624171,-3.26871,0.61945,-55.84181522724696,-2.71875,-3.625,-3.234375,-3.2369757890701294,-4.300391674041748,-7.26190322637558,-0.0149528628490007,-0.0282665315221568,-0.0476069215868339,-9.43292236328125,-2.8268332,-2.8135998,-2.6918755,-2.738071,-2.7403984,-2.6106896,1,1.5371939733183226,1.5195503800640795,1.5853542906511564,,,,,,,,
A55M,KDPKFEAAYDFPGSGSSSELPLKKGDIVFISRDEPSGWSLAKLLDGSKEGWVPTMYMTPYK,-0.6080128945076821,1,-2.3110387501557783,-8.579510815768117,-5.554367065429688,-6.4568634033203125,-5.949722290039063,-6.06495361328125,-2.6719105,-2.4394577,-3.388953447341919,-2.655312490463257,-6.897708892822266,-2.3966219425201416,-2.673384475708008,-2.8741142749786377,-2.6691837310791016,-2.7382373809814453,-3.5609707832336426,-5.690242767333984,-12.418343544006348,-128.37618403625487,-5.23881983757019,-5.092377185821533,-5.209160566329956,-4.803171634674072,-0.039481726903764,-0.036891223892333,-0.0371183365110367,-0.0373028554613628,-0.028624241314237,-5.67330963179116,-0.6655227420753232,-0.6809058034283257,0.0215155686667999,-8.594204902648926,-0.1533558329597848,-0.0689977426997949,-0.0294066882524333,-0.0934578317110657,-0.0535503449987191,-0.0397904192815061,-0.0772746977258901,-0.060091800377017,-0.0593139148149334,-2.996423721313477,-1.45892596244812,-3.268526077270508,-3.100204467773437,-6.163386344909668,-6.726477146148682,-0.9925736599281186,-1.3120001554489136,-10.293949127197266,-9.309309005737305,-10.45884609222412,-9.995311737060549,-9.377635955810549,-10.075154304504396,-9.114237785339355,-9.47635555267334,-8.734213829040527,-9.648335032992891,-3.569974184036255,-2.083335399627685,-105.01248,-2.918807029724121,-2.3317317962646484,-2.255552053451538,-2.707560062408448,-1.2132208347320557,-3.610208034515381,-5.775354385375977,-4.72219054340214,-0.7506105899810791,-2.1396872490285315,-4.459265,0.480228,-3.423934,0.574874,-56.46774115432188,-3.671875,-3.875,-3.984375,-3.709875226020813,-4.346789360046387,-6.617087781429291,-0.0240756175557121,-0.0439110427606301,-0.1243068507460298,-7.87432861328125,-2.842463,-2.8266897,-2.7113078,-2.7297995,-2.7531238,-2.616309,1,1.6462374244940556,1.6091395242618618,1.684722526601462,,,,,,,,
A55N,KDPKFEAAYDFPGSGSSSELPLKKGDIVFISRDEPSGWSLAKLLDGSKEGWVPTNYMTPYK,-0.394917718430515,1,2.126044759940179,-2.5622088132658973,-1.358367919921875,-2.039862060546875,-1.4469146728515625,-1.28209228515625,-2.6277328,-2.4950554,-0.20656418800354,0.3977615594863891,-3.72057056427002,1.913917064666748,0.958397650718689,0.0362462997436523,1.651474952697754,0.5783178806304932,0.9571436643600464,0.002894639968872,-9.323406219482422,-125.54539639282228,-5.08962082862854,-4.9642651081085205,-5.079336404800415,-4.737262964248657,-0.038522754396711,-0.0356946691634163,-0.0357139375474717,-0.0360318498005942,-0.0264078208378383,-1.31928383635323,-0.5859093709292356,-0.773843756229763,0.0633705460000089,-8.487676858901978,-0.0031934644355147,0.0243884227314932,0.028240141321401,0.0204412741739241,0.0318686063172386,0.0305465948386269,-0.0045671306672643,-0.001336269691342,-0.0052612804975666,2.097364902496338,-0.6996181011199951,0.2941104173660278,0.7745193243026733,-3.659726142883301,-4.763517379760742,-0.940663134465452,-1.3691173791885376,-5.005342960357666,-5.767734527587891,-5.625938415527344,-5.5765156745910645,-6.233684062957764,-5.635889053344727,-4.722906589508057,-5.853894710540772,-4.658820152282715,-5.453414069281684,0.3237111866474151,3.7099764347076416,-101.11449,-0.4338913559913635,-1.0095925331115725,0.6226842403411865,-0.8923988342285156,0.1208827495574951,-0.8273082375526428,-3.803938865661621,-1.02484564710444,0.252007246017456,0.0397489185150422,-0.03337,1.595703,0.24608,1.672253,-53.6830777997007,1.1015626192092896,0.875,0.375,0.4432030916213989,0.2709637880325317,-3.8579487204551697,-0.004029821176998,-0.0009250328189036,-0.0050909323770493,-5.06964111328125,-2.8010886,-2.7266726,-2.6932468,-2.6318426,-2.6628122,-2.5589569,1,1.8593326005712227,1.7446083021256238,1.9182111615543065,,,,,,,,
A55P,KDPKFEAAYDFPGSGSSSELPLKKGDIVFISRDEPSGWSLAKLLDGSKEGWVPTPYMTPYK,-1.6094141666558357,0,-2.126672102233119,-6.871490888171593,-5.531463623046875,-6.105517578125,-6.1544036865234375,-5.777020263671875,-2.6479871,-2.5438871,-3.4657657146453857,-3.051839590072632,-6.076980113983154,-2.278816938400269,-2.04324893951416,-2.5730631351470947,-3.339146614074707,-3.368814468383789,-3.609009265899658,-2.362027168273926,-9.771631240844728,-127.64056825256348,-5.299048662185669,-5.08770751953125,-5.234508037567139,-4.82332181930542,-0.0397500386313786,-0.0365962584813435,-0.0375436298430912,-0.0373707196069142,-0.0293721547202458,-5.76838271502897,-0.6341410536738018,-0.6809058034283257,0.0213554998098732,-8.616233587265015,-0.1573997872774717,-0.0570453581262806,-0.0386876590916367,-0.0901641845703127,-0.0420763609839265,-0.0364090966396644,-0.0807901601322361,-0.0593537502601497,-0.0601006179559426,-2.996295928955078,-0.1592185497283935,-2.96347713470459,-1.890446662902832,-9.535046577453612,-11.16083812713623,-1.059908007012039,-1.3749655485153198,-10.14382266998291,-9.60762882232666,-8.219027519226074,-11.318612098693848,-10.640244483947754,-10.44924259185791,-11.290180206298828,-10.907336235046388,-10.315037727355955,-10.321236716376411,-3.5797903537750244,-2.210949182510376,-104.26682,-2.8360674381256104,-0.3807659149169922,-1.9710643291473389,-5.578097343444824,-1.11460280418396,-4.944086074829102,-5.306065082550049,-4.8162884900958,-1.016223669052124,-1.682713861469572,-6.065943,0.337963,-5.096831,0.394932,-55.697809998546006,-4.5390625,-2.5,-2.671875,-1.2038215398788452,-4.075921058654785,-4.848777234554291,-0.0205245721535605,-0.117708299980789,0.0045808885918288,-4.38995361328125,-2.8471646,-2.8510103,-2.6770406,-2.7548747,-2.7380838,-2.5806508,1,0.6448361523459023,0.6246815887590385,0.6857456638370089,,,,,,,,
A55Q,KDPKFEAAYDFPGSGSSSELPLKKGDIVFISRDEPSGWSLAKLLDGSKEGWVPTQYMTPYK,-0.6844662877643093,1,-1.898405092192543,-6.212693411863256,-5.1492767333984375,-5.6813720703125,-5.921554565429688,-5.3723388671875,-2.6489668,-2.4685104,-2.1054792404174805,-1.7615970611572265,-5.370862483978272,-0.7819876670837402,-1.1244352340698245,-0.8531157970428467,-1.4234962463378906,-1.819737434387207,-1.8398780822753904,-4.623297691345215,-9.397801399230955,-125.0905245513916,-5.1846764087677,-5.049466133117676,-5.027700185775757,-4.752343416213989,-0.0387604520434425,-0.0359650623230707,-0.0362731596780201,-0.0362593635680183,-0.0275075369411044,-4.10612500458411,-0.6265433234455763,-0.6809058034283257,0.0403456973010324,-8.593246459960938,-0.0692044867843877,-0.0060307236968493,-0.0045241058849896,-0.0495999445680712,-0.0182647705078125,-0.0212822585809426,-0.058799180828157,-0.0438543225898115,-0.0491968999143507,-1.050554275512695,-0.7648048400878906,-1.467983603477478,-1.1080574989318848,-3.564827442169189,-4.523723602294922,-0.9640365350441854,-1.3433847427368164,-7.142899513244629,-7.498675346374512,-7.515335083007812,-7.606499671936035,-7.73737096786499,-7.623618125915527,-6.479124069213867,-7.416609287261963,-6.875388622283936,-7.321724785698785,-1.804237723350525,-0.6761727929115295,-103.32867,-1.3073992729187012,-1.5368084907531738,-0.8528978824615479,-3.3621416091918945,-1.8080308437347408,-2.916325092315674,-6.059368133544922,-3.51584111070824,-0.5994439125061035,-2.1396872490285315,-2.158492,0.827336,-1.7485,0.882386,-55.72299769530019,-2.6796875,-2.3125,-2.359375,-0.3299075365066528,-1.1164073944091797,-6.448776662349701,-0.0269847932409068,-0.0310761498623208,0.0649319007748463,-7.46026611328125,-2.8230133,-2.7956452,-2.6975613,-2.6582503,-2.7080357,-2.584083,1,1.5697840312374285,1.5343645500932024,1.6012316443704575,,,,,,,,
A55R,KDPKFEAAYDFPGSGSSSELPLKKGDIVFISRDEPSGWSLAKLLDGSKEGWVPTRYMTPYK,-0.2271716993822408,1,-2.700272528589005,-7.416769631574425,-6.2809600830078125,-6.757562255859375,-5.7874908447265625,-6.029049682617187,-2.6549325,-2.4699879,-3.112000703811645,-2.159766721725464,-6.141382217407227,-1.0316500663757324,-1.7450922012329102,-0.0289678573608398,-1.386335849761963,-2.7702198028564453,-3.2246575355529785,-5.293405055999756,-11.207974433898926,-126.45670532226562,-5.217507362365723,-5.013965368270874,-5.071868658065796,-4.758748531341553,-0.0386361243232848,-0.0363456786624969,-0.0364403232695564,-0.0367531435830252,-0.0282511247528923,-5.44923222793184,-0.6775034375428473,-0.6809058034283257,0.034188432954997,-8.603694915771484,-0.136792167288358,0.0053024291992187,-0.0127348352651126,-0.0905754214427512,-0.025799235359567,-0.0363416828092979,-0.0783643878874231,-0.0527750859495068,-0.0596408531314037,-0.8029909133911133,-0.1492652893066406,-2.8869543075561523,-1.2005484104156494,-3.6406679153442383,-6.520549774169922,-0.942842827468622,-1.2894996404647827,-9.87033748626709,-8.018702507019043,-8.054083824157715,-7.964498519897461,-8.414506912231445,-7.97125244140625,-7.869451999664307,-8.135005950927734,-8.420914649963379,-8.30208412806193,-2.0181877613067627,-0.8437122106552124,-104.86497,-1.6469159126281738,-0.9401936531066896,0.2626345157623291,-1.1057276725769043,-0.0800368785858154,-3.1530873775482178,-4.565794944763184,-4.57030972417442,-0.6588485240936279,-2.1396872490285315,-3.017712,0.646055,-3.072272,0.625213,-56.17202738185474,-3.5,-2.6875,-3.234375,-2.94605553150177,-2.2743711471557617,-6.973789155483246,-0.0190307116899335,-0.0101543489049693,-0.0725270255667265,-9.15948486328125,-2.8066065,-2.797855,-2.6910903,-2.6946793,-2.7118917,-2.5749633,1,2.027078619619497,1.98810129254966,2.079267623489091,,,,,,,,
A55S,KDPKFEAAYDFPGSGSSSELPLKKGDIVFISRDEPSGWSLAKLLDGSKEGWVPTSYMTPYK,-0.0067402606653601,1,0.8819546151932398,-2.062828949012328,-1.7504119873046875,-2.110638427734375,-1.791229248046875,-1.6006927490234375,-2.610595,-2.522805,0.214216947555542,0.4065001726150513,-2.7848997116088867,1.3138246536254885,0.9372615814208984,1.1135145425796509,1.569084405899048,1.2044293880462646,0.9740625619888306,-0.7348246574401855,-6.043686866760254,-121.99304949951171,-5.105973243713379,-5.008408308029175,-5.065187931060791,-4.73720908164978,-0.0385340016985696,-0.035173875944955,-0.0355869191033499,-0.0358492552287994,-0.0262277741280813,-1.1139189907303,-0.4200573860839249,-0.5192385352397457,0.2527617125218837,-8.460055351257324,-0.0026639094118212,0.0315184046010501,0.0196190505731301,0.0071571225025615,0.0205392055824154,0.0140941182120901,-0.0117754076347976,-0.0089445270475793,-0.0126827427598297,1.271482229232788,0.0227205753326416,0.4516810178756714,0.5758388042449951,-1.7572050094604492,-3.192474126815796,-0.9276050505090933,-1.243939757347107,-4.205216407775879,-4.96544075012207,-5.321870803833008,-4.85317850112915,-4.433440208435059,-4.622164249420166,-4.043642997741699,-4.661951065063477,-3.7218756675720215,-4.536531342400445,1.6006386280059814,1.3566641807556152,-100.63932,0.40771484375,0.6540188789367676,1.6186227798461914,-0.6844592094421387,0.715673565864563,-2.232114791870117,-3.3931775093078613,-0.893619584190776,-0.3128340244293213,-0.5004982974578538,0.538195,1.618261,0.608301,1.677961,-53.3639021993516,1.1328126192092896,0.3125,0.875,-0.081131100654602,1.2918325662612915,-0.4679903388023376,0.0197018482646003,0.0229484683177507,-0.0556473028464394,-2.84893798828125,-2.7897196,-2.7478838,-2.675139,-2.6168666,-2.6426175,-2.5740466,1,2.2475100583363776,2.2034093393966243,2.317600237521175,,,,,,,,
A55T,KDPKFEAAYDFPGSGSSSELPLKKGDIVFISRDEPSGWSLAKLLDGSKEGWVPTTYMTPYK,-0.881550324137292,1,0.3927384027896776,-2.2766528636566363,-2.526092529296875,-2.786444091796875,-2.8554229736328125,-2.236456298828125,-2.6265645,-2.5270908,-0.2445292472839355,0.0856911420822144,-4.364317893981934,0.4362258911132812,0.0623878002166748,-0.0064258575439453,0.1333951950073242,0.4706740379333496,0.4407159090042114,-1.6923273801803589,-8.159798622131348,-123.3756202392578,-5.144820928573608,-5.042289733886719,-5.10153865814209,-4.749202728271484,-0.0390079437740265,-0.0357801365473913,-0.0360674460728963,-0.0360815543977041,-0.0267501691031077,-3.9455375192557,-0.4827110125279627,-0.5960645827669913,0.1911591536002698,-8.500146865844727,-0.0123462364321849,0.0065670326107838,0.0035205278240266,-0.0045063456550975,0.0055245571449156,0.002231785508453,-0.0233613936627496,-0.0179807944375959,-0.0214244029561028,-0.2990124225616455,-0.1373186111450195,-0.6998261213302612,-0.3996038436889648,-5.502725124359131,-5.009228706359863,-0.9706166376833056,-1.3619261980056765,-5.545420169830322,-5.817618370056152,-6.508058071136475,-6.1712565422058105,-5.66798734664917,-5.896088123321533,-5.087255477905273,-6.0709428787231445,-5.791149616241455,-5.839530838860406,0.5386485457420349,0.8336554765701294,-101.41805,-1.244986057281494,-1.051299810409546,-0.0756075382232666,-2.2386021614074707,-0.2712948322296142,-2.634772539138794,-5.402055740356445,-3.26786460137225,-0.4894793033599853,-0.5803424575649617,-0.39548,1.431374,-0.557797,1.443987,-53.96206934280028,-0.6953125,-0.375,0.5,-1.1879335641860962,-0.2944207191467285,-2.970411241054535,-0.0107416872118339,-0.0247054803566855,-0.0664450223328638,-4.01495361328125,-2.8033142,-2.7658298,-2.683181,-2.6490295,-2.6759944,-2.5748184,1,1.3726999948644458,1.335607988995148,1.494303302257952,,,,,,,,
A55V,KDPKFEAAYDFPGSGSSSELPLKKGDIVFISRDEPSGWSLAKLLDGSKEGWVPTVYMTPYK,-0.8610498148063928,1,-1.871053676351668,-6.180399756809493,-5.3834228515625,-5.808673095703125,-5.65167236328125,-5.637176513671875,-2.6672912,-2.4136863,-1.6766221523284912,-1.1932260513305664,-6.638373851776123,-1.3294732570648191,-1.9035459995269768,-1.839395761489868,-2.0468344688415527,-1.629650592803955,-2.27608585357666,-4.215982437133789,-8.483231544494629,-124.71727334594726,-5.136345863342285,-5.058630704879761,-5.166572093963623,-4.73995041847229,-0.0392680981802561,-0.0368980964024861,-0.0366369996752057,-0.036923296867855,-0.0285191829242403,-5.24378194482461,-0.5370709112420496,-0.5960645827669913,0.0310488660517897,-8.688688278198242,-0.1420436921666878,-0.0433200773645618,-0.0181084304559426,-0.0853959380603228,-0.0389064100922131,-0.0303883787061347,-0.0744443799628586,-0.0545441049044248,-0.0544360426605725,-1.7023544311523438,0.2505836486816406,-2.215808868408203,-1.7120146751403809,-5.873712539672852,-5.751524925231934,-0.978774399053855,-1.3106286525726318,-8.626291275024414,-8.353196144104004,-8.767327308654785,-8.4542818069458,-8.596302032470703,-7.61035680770874,-7.783525466918945,-8.437126159667969,-8.630072593688965,-8.362053394317627,-2.2944657802581787,-1.5247347354888916,-102.87859,-2.641875505447388,-2.82331657409668,-0.5094919204711914,-2.8872437477111816,0.2671563625335693,-2.6695995330810547,-5.609083652496338,-4.40018655723846,-0.5573701858520508,-1.3973777468999935,-2.71923,0.730278,-2.546703,0.744335,-54.61751469835789,-2.158203125,-2.625,-1.984375,-2.9609204530715942,-3.045671463012696,-4.629328191280365,-0.025026415215164,-0.0163714299436477,-0.0466508709016393,-6.84307861328125,-2.8234334,-2.8075285,-2.6868086,-2.6898196,-2.7340145,-2.6096933,1,1.393200504195345,1.346203803012173,1.5651742770827624,,,,,,,,
A55W,KDPKFEAAYDFPGSGSSSELPLKKGDIVFISRDEPSGWSLAKLLDGSKEGWVPTWYMTPYK,-0.6970690464809106,1,-6.388346991301544,-9.739417481408822,-8.648574829101562,-8.869512939453125,-8.863189697265625,-8.632781982421875,-2.6903107,-2.512088,-5.4350175857543945,-4.993063735961914,-8.333023071289062,-4.570899963378906,-4.362110710144043,-2.981701135635376,-3.6724605560302734,-4.04320240020752,-7.181591510772705,-8.353626251220703,-15.245757102966309,-134.02110302734374,-5.3675377368927,-5.245482683181763,-5.234012842178345,-4.983493328094482,-0.0406834095243423,-0.0376493741595555,-0.038351193306938,-0.03823136904883,-0.0308066890353248,-7.57637390076944,-0.9391241650643812,-0.8748284033840698,0.0087936646504665,-8.838136911392212,-0.240122435522861,-0.1132699935162653,-0.1059070024334016,-0.168499930960233,-0.1169043368980533,-0.1123622206390881,-0.1224757335225089,-0.1092692515889151,-0.1062394439196978,-3.826079845428467,-1.4382503032684326,-3.421675205230713,-3.942519664764404,-5.951267719268799,-8.876144409179688,-1.0270035540471312,-1.358075737953186,-13.725316047668455,-13.151163101196287,-12.58168601989746,-12.89132308959961,-12.22494888305664,-11.994414329528809,-12.473590850830078,-12.478157997131348,-11.1756010055542,-12.521800253126356,-6.27562427520752,-3.702127933502197,-107.60964,-2.3249690532684326,-1.5580759048461914,-2.5288407802581787,-3.262993335723877,-0.5828249454498291,-6.06803035736084,-5.345107078552246,-5.99450524699168,-1.2457871437072754,-2.1396872490285315,-7.077599,-0.145723,-6.798593,-0.196704,-58.97294614309807,-6.882812023162842,-5.9375,-5.1875,-4.857099652290344,-7.052291393280029,-11.13498729467392,-0.0283100565925971,-0.2431115322425716,-0.0553728947873977,-10.80792236328125,-2.8593185,-2.8708858,-2.7144299,-2.787861,-2.7798245,-2.6577678,1,1.5571812725208272,1.471269365618373,1.6490297488783214,,,,,,,,
A55Y,KDPKFEAAYDFPGSGSSSELPLKKGDIVFISRDEPSGWSLAKLLDGSKEGWVPTYYMTPYK,-0.9226381258843436,1,-4.095687667707052,-7.1426894802852985,-6.6942291259765625,-7.3422393798828125,-7.512451171875,-7.168637084960937,-2.662618,-2.4658792,-3.174672365188598,-2.972062063217164,-7.342347621917725,-2.548307180404663,-3.075866365432739,-1.806535482406616,-1.724475383758545,-3.444823265075684,-5.025131702423096,-5.933794975280762,-13.451251983642578,-132.12450372314453,-5.187192440032959,-5.115367889404297,-5.211811780929565,-4.823748826980591,-0.0400733304402184,-0.0367793790877811,-0.0368559984933762,-0.0373994755366491,-0.0295619709151131,-7.23582158806608,-0.7994813049761362,-0.773843756229763,0.0138260184545715,-8.595184564590454,-0.168527196665279,-0.0559623593189677,-0.0314272270827995,-0.1151863473360657,-0.064675127873655,-0.0590598934986552,-0.0941512936451395,-0.0752921182601177,-0.0792203184034003,-2.479644775390625,-0.6419143676757812,-2.5195770263671875,-2.8168978691101074,-4.5416364669799805,-7.331161499023437,-0.9948322733894724,-1.344061255455017,-9.902520179748535,-10.63088321685791,-10.605875015258787,-10.784565925598145,-10.836047172546388,-10.25527000427246,-10.323015213012695,-10.563387870788574,-9.48582935333252,-10.376377317640516,-4.835075378417969,-1.8641916513442995,-106.0004,-1.902614951133728,-1.8455464839935305,-1.237267255783081,-3.462113380432129,-3.1188900470733643,-4.052031993865967,-4.270580291748047,-5.85483290609648,-0.8424665927886963,-2.1396872490285315,-4.907876,0.286852,-4.931932,0.235767,-57.68154787173905,-5.0234375,-4.1875,-4.125,-4.456661343574524,-5.67557954788208,-8.516381680965424,-0.0485687255859375,-0.1860536669121413,-0.0634970743148053,-11.52667236328125,-2.8445714,-2.8179693,-2.691712,-2.7076883,-2.7223933,-2.6090112,1,1.331612193117394,1.277745207521605,1.3822158943893357,,,,,,,,
A7C,KDPKFECAYDFPGSGSSSELPLKKGDIVFISRDEPSGWSLAKLLDGSKEGWVPTAYMTPYK,0.6341450579111991,1,-3.724816448082871,-5.045900340872322,-5.515533447265625,-5.176852416992188,-5.341323852539063,-4.466778564453125,-2.657653,-2.5632465,-1.7844945192337036,-2.0043127298355103,-5.32586145401001,-4.822839260101318,-3.585186815261841,-2.026949167251587,-3.836001873016357,-2.5727853775024414,-3.237478017807007,-3.298992156982422,-8.473127365112305,-127.5393374633789,-5.156789302825928,-5.087156534194946,-5.131880283355713,-4.88239312171936,-0.0394268490019298,-0.0364265290517655,-0.0362665255864461,-0.0365480014256068,-0.0277585339924645,-4.8564074393178,-0.6491614801979926,-0.8549339483632366,0.0682615560475846,-8.74691128730774,-0.0168780967837471,-0.0449184980548795,-0.0123643718782018,-0.0388805201796236,-0.0566133592949538,-0.0441674404456968,-0.0404085253105789,-0.0533959435634924,-0.0510588473961002,-1.3016932010650637,-2.189904928207397,-2.223238468170166,-2.06697416305542,-8.41048812866211,-6.435705184936523,-1.062969145227651,-1.3371139764785769,-9.55125331878662,-7.234636783599853,-8.392416954040527,-9.10412311553955,-7.592442035675049,-7.025328636169434,-7.98179292678833,-6.5907793045043945,-8.816130638122559,-8.03210030661689,-3.778067350387573,-3.021357774734497,-103.07293,-1.163992166519165,-5.306625843048096,-7.435085296630859,-7.7047834396362305,-8.66084098815918,-6.161712169647217,-9.275188446044922,-5.59476906836489,-1.87032949924469,-6.002506962648741,-2.280732,0.93118,-2.305557,0.927537,-57.04174779694616,-4.03125,-2.375,-3.875,-4.777156427502632,-5.1648053377866745,-5.187914036214352,-0.0686865634605533,-0.0218928602875259,-0.0488593930103737,-7.0188751220703125,-2.829617,-2.8074603,-2.7145967,-2.6555002,-2.7240596,-2.615045,1,2.888395376912937,2.828963623355208,2.953945941192353,,,,,,,,
A7F,KDPKFEFAYDFPGSGSSSELPLKKGDIVFISRDEPSGWSLAKLLDGSKEGWVPTAYMTPYK,-2.6929393414721603,0,-11.480180264803623,-11.34109106872778,-9.115936279296877,-9.57620849609375,-10.310379028320312,-9.679586791992188,-2.6793144,-2.4454691,-5.039842128753662,-5.208626937866211,-9.612491607666016,-5.660057544708252,-5.960322189331055,-1.991105318069458,-5.914965629577637,-6.776427745819092,-6.551133155822754,-6.268940448760986,-14.083274841308594,-134.3817654876709,-5.17314076423645,-5.0698018074035645,-5.13155722618103,-4.863993167877197,-0.040384464793735,-0.0371170706219143,-0.0367510640431964,-0.0367932243952675,-0.0283053167282588,-10.0551242151432,-0.9807144022171848,-1.0771486043116565,0.0101802855473089,-8.611716032028198,-0.0334621491979378,-0.0469919423587987,-0.0181876010582096,-0.1228731499343622,-0.1309436735559681,-0.1199530929815573,-0.1023685267714203,-0.1085515882148117,-0.1065804528408362,-0.2564117908477783,-0.3411865234375,-3.0083227157592773,-4.375509262084961,-10.425460815429688,-7.544930934906006,-1.1229368116034837,-1.3895233869552612,-12.260518074035645,-9.327862739562988,-9.733699798583984,-10.70693588256836,-10.899325370788574,-10.428115844726562,-11.915289878845217,-10.50941276550293,-9.329041481018066,-10.56779999203152,-7.590381145477295,-7.242960453033447,-106.831505,-0.1752296388149261,-6.573143005371094,-9.030670166015623,-10.196715354919434,-13.487631797790527,-12.685213088989258,-12.01511001586914,-11.6121184425783,-3.182202339172364,-9.107539655400162,-5.178958,-0.069291,-3.86596,0.048399,-60.14445897648052,-10.5390625,-5.9375,-8.0,-7.984709337353706,-9.62469618022442,-9.770532749593258,-0.0665635906282018,-0.2415513835969518,-0.2474287689709271,-10.913406372070312,-2.8122783,-2.769243,-2.7250702,-2.65383,-2.7062669,-2.596161,1,-0.4386890224704226,-0.5481706159230951,-0.3462604444549432,,,,,,,,
A7I,KDPKFEIAYDFPGSGSSSELPLKKGDIVFISRDEPSGWSLAKLLDGSKEGWVPTAYMTPYK,-1.0947356676514637,0,-5.600950307508732,-6.540485356835688,-5.9516448974609375,-6.241461181640625,-7.261123657226562,-7.161962890625,-2.6876435,-2.4636228,-2.500250816345215,-2.703299570083618,-7.422811985015869,-4.722522735595703,-3.650107908248901,0.2283992767333984,-3.254316806793213,-4.162750720977783,-4.927557945251465,-3.814015865325928,-12.293058395385742,-133.04839738464355,-5.200347423553467,-5.05298924446106,-5.031046390533447,-4.805817127227783,-0.0391912365716601,-0.0364564808588179,-0.0366259586243402,-0.036391192012363,-0.0276464186017475,-5.45109033101673,-0.7787095463989829,-0.96224154569827,0.0719940984004166,-8.621333122253418,-0.0084850123671234,-0.0095456232790085,0.0136714997838756,-0.0604660784611936,-0.0610716772861168,-0.0539085513255634,-0.0709107821104956,-0.0719071685290726,-0.072853901347176,1.1070959568023682,0.3529355525970459,-1.4355181455612185,-1.6936893463134766,-13.566322326660156,-8.997323989868164,-1.1895698172147158,-1.3708233833312988,-10.386186599731444,-8.64068603515625,-9.642290115356444,-11.665499687194824,-8.505269050598145,-9.549934387207031,-11.319928169250488,-9.505887985229492,-9.459484100341797,-9.852795706854929,-4.271671295166016,-4.763667106628418,-104.61588,0.1632575839757919,-6.072311878204346,-6.854710578918457,-7.656075477600098,-10.029726028442385,-7.896683216094971,-10.404932022094728,-6.26065593178779,-2.2235026359558105,-6.656432329678008,-4.539018,0.328957,-3.135182,0.470027,-58.01244507390221,-11.40625,-4.0,-4.875,-6.1969223767519,-5.7904509752988815,-8.493602894246578,0.0170630783331198,-0.2477942294761783,0.0806667140272798,-8.272781372070312,-2.8096554,-2.76006,-2.700619,-2.6301265,-2.665681,-2.5760863,1,1.1595146513502743,1.0799983491369556,1.2234300616360618,,,,,,,,
A7L,KDPKFELAYDFPGSGSSSELPLKKGDIVFISRDEPSGWSLAKLLDGSKEGWVPTAYMTPYK,-1.3134995901817363,0,-6.286714313785284,-7.058418008234412,-6.456329345703125,-6.980548095703125,-7.345779418945312,-7.230581665039063,-2.672556,-2.473019,-4.135378837585449,-3.981396579742432,-8.939823150634766,-5.922197341918945,-4.725661897659302,-0.0046727657318115,-4.866729736328125,-5.475412368774414,-5.339715957641602,-3.527561664581299,-13.082952499389648,-132.9381199798584,-5.206119775772095,-5.044693231582642,-5.070942640304565,-4.812476396560669,-0.039706133660816,-0.0365252967864748,-0.036689245511615,-0.0363469577970958,-0.027737814282614,-5.61356847884989,-0.8558898358853062,-0.96224154569827,0.0513007466934436,-8.470599889755249,-0.0150010155849769,-0.0215885600105658,-0.0072191582351435,-0.0673262799372438,-0.0694056026271132,-0.0657100990170338,-0.0737753070768763,-0.0742222520171618,-0.0759468078613281,0.1947498321533203,0.2199153900146484,-2.568160057067871,-2.576270341873169,-13.31804084777832,-10.8753662109375,-1.0775093954117572,-1.3495259284973145,-11.748705863952637,-9.176029205322266,-9.86434555053711,-12.150257110595703,-10.47913646697998,-10.550950050354004,-11.754424095153809,-11.059992790222168,-10.937344551086426,-10.857908884684244,-6.247341632843018,-5.652628421783447,-105.61445,0.3771775364875793,-4.776429176330566,-7.824630260467529,-6.647258281707764,-9.17060375213623,-10.08132553100586,-9.891611099243164,-6.38290673572657,-2.659275531768799,-9.107539655400162,-6.130851,0.142083,-4.548088,0.27759,-58.47543043249545,-12.421875,-4.75,-6.125,-6.5713139325380325,-6.795833513140678,-9.051433704793451,-2.1262247054121275e-05,-0.1393134945728742,-0.1991352018762806,-9.350906372070312,-2.8056827,-2.757224,-2.704197,-2.6318493,-2.6733904,-2.5891743,1,0.9407507288200014,0.90358822071137,0.9968859048357296,,,,,,,,
A7M,KDPKFEMAYDFPGSGSSSELPLKKGDIVFISRDEPSGWSLAKLLDGSKEGWVPTAYMTPYK,-0.7605014814848803,1,-5.762523890886348,-6.387658414823818,-5.962692260742188,-6.350253295898438,-8.08477783203125,-7.550924682617188,-2.6829524,-2.4637232,-4.549070358276367,-5.100672435760498,-9.268906593322754,-5.843173980712891,-5.311249542236328,-1.1013197898864746,-5.687781810760498,-5.073256015777588,-4.712553977966309,-2.484964370727539,-11.670487403869627,-132.22958117675782,-5.231097221374512,-5.10924768447876,-5.104118824005127,-4.842899799346924,-0.0398877234685988,-0.0366247949146089,-0.0366742402788192,-0.0364519982110886,-0.0280536668641226,-5.22739924786093,-0.8264972657083567,-0.96224154569827,0.0409427442055438,-8.66795802116394,-0.0271842831470925,-0.0488187445968879,-0.0252366613169183,-0.0671874499711835,-0.0786310414798923,-0.0688869288710296,-0.0736090863337283,-0.0805830408315189,-0.0778419619700948,-0.8744819164276123,-1.3903255462646484,-3.7785258293151855,-4.118869304656982,-6.831789970397949,-6.540212154388428,-1.0699221501584912,-1.377755641937256,-8.994926452636719,-9.620651245117188,-10.429640769958496,-11.369563102722168,-9.260408401489258,-11.590736389160156,-11.755924224853516,-9.640748023986816,-11.003332138061523,-10.407324896918404,-4.873104095458984,-6.420211315155029,-106.10379,-2.062040567398072,-7.601513385772705,-10.528541564941406,-9.604131698608398,-10.461856842041016,-10.73279857635498,-11.92103099822998,-6.12018122434516,-2.7913780212402344,-9.107539655400162,-5.249785,0.199018,-3.417031,0.382942,-58.760931439936485,-10.421875,-5.75,-5.875,-6.2695465832948685,-5.235418245196343,-7.962741039693356,-0.0070555640048666,-0.2830317763031509,-0.2957581066694414,-8.905593872070312,-2.8199968,-2.7780871,-2.7214699,-2.660459,-2.7050328,-2.6096156,1,1.4937488375168575,1.4518868974667734,1.534450649831461,,,,,,,,
A7S,KDPKFESAYDFPGSGSSSELPLKKGDIVFISRDEPSGWSLAKLLDGSKEGWVPTAYMTPYK,-1.099183921174613,0,-3.6771588956629895,-6.160131243957949,-3.4010772705078125,-3.9387298583984376,-5.6649322509765625,-4.7747650146484375,-2.6510513,-2.4570777,-3.736123561859131,-3.714575290679932,-6.73491907119751,-4.976102828979492,-3.8604360103607176,-1.1107735633850098,-3.4179186820983887,-3.886876344680786,-4.699851989746094,-3.605912208557129,-6.576570987701416,-130.19608798217774,-5.194488286972046,-5.066383600234985,-5.091081380844116,-4.853006362915039,-0.0400665998458862,-0.0363536978524828,-0.036860672254411,-0.0366337375035361,-0.0276477478799365,-4.48998104106337,-0.6349170082561952,-0.7555048880070194,0.0861902835280447,-8.675470352172852,-0.0442723758885117,-0.0428081574987193,-0.0316614870165214,-0.0586501574907147,-0.0564912889824538,-0.0531189715275999,-0.0530512450171298,-0.0509505975441854,-0.0515191750448259,-1.3372619152069092,-0.4680261611938476,-3.5921530723571777,-3.736310005187988,-7.237707138061523,-6.626655578613281,-0.9994376761014344,-1.330486536026001,-10.214064598083496,-8.416450500488281,-10.62057876586914,-8.799348831176758,-9.70249843597412,-8.968778610229492,-9.172540664672852,-8.469223022460938,-9.38598918914795,-9.305496639675564,-4.159134387969971,-3.1252989768981934,-104.07951,-2.656376361846924,-4.792642116546631,-7.340698719024658,-7.243475437164307,-9.157308578491213,-7.289120674133301,-11.978254318237305,-4.92566210837459,-2.094583511352539,-6.582655241720412,-3.922125,0.707704,-4.359985,0.620705,-55.86169552755301,-5.328125,-3.375,-4.75,-6.188241079449654,-5.007450982928276,-3.3728269562125206,-0.0405553598872949,0.021196959448642,-0.2061687532018443,-5.7727813720703125,-2.81021,-2.7778368,-2.7063735,-2.627026,-2.7194252,-2.6042664,1,1.1550663978271247,1.1147271579582942,1.1882208298459631,,,,,,,,
A7T,KDPKFETAYDFPGSGSSSELPLKKGDIVFISRDEPSGWSLAKLLDGSKEGWVPTAYMTPYK,-1.551191225874374,0,-3.3043353716091977,-6.692783708665047,-4.4012603759765625,-4.321493530273438,-5.412643432617188,-5.0389251708984375,-2.659438,-2.4554942,-3.57204008102417,-3.32584867477417,-7.177267074584961,-4.11906099319458,-3.2445701599121093,-0.3058464527130127,-3.14168643951416,-3.5506086349487305,-6.107202529907227,-4.095733165740967,-9.386202812194824,-131.57673851013183,-5.196273326873779,-5.0614941120147705,-5.082608699798584,-4.855233192443848,-0.0397469221599518,-0.0364869473472474,-0.0367393891016642,-0.0365368846863035,-0.0276642744503324,-4.22055455197295,-0.6994987560189917,-0.8549339483632366,0.0914342201112004,-8.654731512069702,-0.0422206941198128,-0.0396492129466572,-0.0267692941134092,-0.0554828331118726,-0.0521137675300971,-0.0490177342149078,-0.0549535907682825,-0.0516164185570888,-0.0534697986039959,-0.1382844448089599,-0.3906037807464599,-2.590953826904297,-2.417869329452514,-13.92064094543457,-8.25895881652832,-1.1097793579101562,-1.3918431997299194,-10.26605224609375,-8.376704216003418,-9.583059310913086,-10.745372772216797,-11.046708106994627,-10.640572547912598,-10.239886283874512,-9.90095043182373,-10.63173007965088,-10.15900378757053,-6.101429462432861,-2.811352491378784,-103.11279,-2.430392503738404,-6.726395606994629,-7.766556739807129,-7.105185031890869,-8.310876846313477,-7.491848468780518,-10.677129745483398,-4.75185877679432,-2.11966323852539,-8.092503694883337,-4.626167,0.594712,-4.159999,0.612404,-55.8504230367294,-8.9765625,-4.25,-4.625,-5.400095537304878,-5.027101442217827,-4.875921867787838,-0.0088556008260756,-0.0904420946465163,-0.0682267986360143,-6.8899688720703125,-2.80971,-2.7676184,-2.7047162,-2.638772,-2.6994185,-2.603673,1,0.7030590931273637,0.6538871789433137,0.7654996076581414,,,,,,,,
A7V,KDPKFEVAYDFPGSGSSSELPLKKGDIVFISRDEPSGWSLAKLLDGSKEGWVPTAYMTPYK,-0.8414506669997288,1,-1.6267994932057093,-3.922332411035313,-1.1219329833984375,-1.606298828125,-2.6396484375,-2.16944580078125,-2.6825387,-2.4550962,-0.0814199447631836,-0.0121815562248229,-5.168729782104492,-2.1896705627441406,-0.7441624641418457,1.098790168762207,-0.7421591281890869,-1.3042020797729492,-1.1479525566101074,-0.9883692264556884,-6.535637855529785,-128.2022931213379,-5.161706209182739,-5.037176847457886,-5.020467042922974,-4.771522760391235,-0.0386859613751608,-0.0360038942760891,-0.0362775969126867,-0.0359814450854346,-0.0269442541258675,-4.6442902138995,-0.6062653258598463,-0.8549339483632366,0.1241276128141202,-8.605678796768188,0.0090128163822362,0.007815501728996,0.0207041756051487,-0.0135380479155995,-0.0147054703509219,-0.0110686255283043,-0.0191243281129931,-0.0204551571705301,-0.021467490274398,1.6075655221939087,0.1997923851013183,0.959658145904541,0.2973366379737854,-14.758061408996582,-7.74509859085083,-1.1534670220046748,-1.4137294292449951,-5.222006797790527,-4.773726463317871,-5.978384017944336,-7.839971542358398,-6.083462715148926,-6.319683074951172,-6.563689231872559,-5.992606163024902,-5.880753040313721,-6.072697692447239,-2.630793809890747,-1.5080280303955078,-101.38061,0.3474867343902588,-3.574733018875122,-5.528172492980957,-5.249665260314941,-6.43865966796875,-4.657016277313232,-7.918444633483887,-5.447612320358,-1.4881895780563354,-3.5369747746000053,-1.28792,1.340294,-0.103468,1.511699,-54.75197363822313,-7.0,-1.25,-1.625,-2.1363955289125443,-2.283757135272026,-4.417282246053219,0.0353238465356047,-0.1281605704886015,0.2090744268698769,-4.7024688720703125,-2.8031921,-2.7478356,-2.6893492,-2.6176877,-2.6701176,-2.5660486,1,1.412799652002009,1.372577355385636,1.4515127460966544,,,,,,,,
A7W,KDPKFEWAYDFPGSGSSSELPLKKGDIVFISRDEPSGWSLAKLLDGSKEGWVPTAYMTPYK,-2.9795615948440184,0,-11.560415393767949,-11.351174727647678,-9.049392700195312,-9.245318603515624,-10.585311889648438,-9.676455688476562,-2.6764843,-2.4850264,-8.652297973632812,-8.689249992370605,-13.686476707458496,-8.608638763427734,-8.953569412231445,-2.9863216876983643,-7.825490951538086,-10.108271598815918,-11.45676612854004,-8.611673355102539,-15.843497276306152,-136.14629328918457,-5.258811712265015,-5.120004415512085,-5.205666303634644,-4.971183776855469,-0.0412253973976014,-0.0379263919497293,-0.0376222758066086,-0.0381625304146418,-0.0292848859514508,-10.328288534571,-1.2043800909864937,-1.199274189231827,0.0058763896940414,-8.927639484405518,-0.0673411635101817,-0.0696153484407018,-0.0474754708712217,-0.1384811401367187,-0.1438578621285859,-0.132018792824667,-0.1089190498727267,-0.1166905887791367,-0.110114363373303,-2.139019727706909,-1.744687795639038,-4.6477484703063965,-7.40463399887085,-15.822269439697266,-11.28575611114502,-1.1970306146340293,-1.4599398374557495,-15.776385307312012,-13.886357307434082,-13.11180591583252,-14.312341690063477,-13.865055084228516,-14.794761657714844,-16.28703498840332,-14.763519287109377,-13.474447250366213,-14.474634064568413,-12.480916976928713,-11.407224655151367,-110.03327,-2.3845090866088867,-8.497880935668945,-11.212905883789062,-14.24096393585205,-17.746688842773438,-16.635883331298828,-15.43325901031494,-11.7444752596913,-3.972341060638428,-9.107539655400162,-8.807016,-0.474508,-7.404052,-0.410785,-61.78756386563432,-13.375,-8.25,-11.8125,-10.975613191723824,-13.121504232287409,-13.651047848165035,-0.0520047047099128,-0.4886156926389602,-0.3586203153016138,-13.757156372070312,-2.848473,-2.8023992,-2.7359633,-2.6986299,-2.7618375,-2.6192236,1,-0.7253112758422806,-0.782907463192865,-0.64538867870296,,,,,,,,
A8C,KDPKFEACYDFPGSGSSSELPLKKGDIVFISRDEPSGWSLAKLLDGSKEGWVPTAYMTPYK,0.7585620020607848,1,-1.5251368864015007,-5.492267169724983,-1.8043975830078125,-3.4792633056640625,-5.2400970458984375,-4.5243988037109375,-2.6960185,-2.5024204,-2.4952597618103027,-1.8855451107025147,-4.364749908447266,-1.6342415809631348,-1.244690179824829,-1.77390718460083,-1.4487042427062988,-1.1124639511108398,-2.7489020824432373,-4.943934440612793,-8.130502700805664,-122.04005096435549,-5.118044376373291,-5.004753828048706,-5.112218618392944,-4.837206125259399,-0.0388438550252763,-0.0356511407428317,-0.0360532223232208,-0.0363481063691396,-0.0272137995750185,-4.11221835890181,-0.3602510589856018,-0.3795742330727412,0.1062312556666792,-8.470367670059204,0.022870548435899,-0.0193500206118724,-0.0063869288710296,-0.0038692286757171,-0.0259254330494365,-0.0215544153432376,-0.0311733933745838,-0.0435190669825819,-0.0434935522861168,-1.9459986686706543,-1.803041934967041,-0.804713249206543,-1.055466651916504,-6.8389434814453125,-7.046633720397949,-1.0594078439180967,-1.339542269706726,-9.061119079589844,-7.487490653991699,-8.311878204345703,-8.488398551940918,-8.158740997314453,-7.287059783935547,-9.064666748046877,-8.14257526397705,-7.336778163909912,-8.148745165930855,-3.2933349609375,-1.649884581565857,-101.435234,-1.0473952293395996,-2.8039536476135254,-3.334579944610596,-1.8056848049163816,-2.1775341033935547,-4.185695648193359,-2.1291732788085938,-4.4550016749602,-0.8449103832244873,-4.028758422226867,-2.232567,0.929088,-2.586738,0.883535,-54.991258680833646,-3.4765625,-2.484375,-2.8125,-2.8283021450042725,-4.487289905548096,-3.419984579086304,0.0427626312756146,-0.0299182329021516,0.0758274265977201,-5.77734375,-2.8276365,-2.78859,-2.7120228,-2.6663318,-2.7034068,-2.5954742,1,3.0128123210625226,2.9677247332186685,3.0435170214547185,,,,,,,,
A8D,KDPKFEADYDFPGSGSSSELPLKKGDIVFISRDEPSGWSLAKLLDGSKEGWVPTAYMTPYK,-1.640388279980758,0,-2.2269447550305994,-6.514728661380559,-2.5593719482421875,-4.460638427734375,-6.475601196289063,-5.263287353515625,-2.6347947,-2.4340384,-1.4389891624450684,-1.5647620677947998,-6.188278198242188,-1.1558966636657717,-1.9011637210845944,-3.4822144508361816,-1.3055567741394043,-1.8942008018493648,-1.5385892391204834,-3.1328046321868896,-9.50524616241455,-127.12843283081055,-5.123532056808472,-5.047667026519775,-5.1215784549713135,-4.866854429244995,-0.039531666135031,-0.0359718648214188,-0.0366600562655736,-0.0359826504238068,-0.0269618602026076,-4.38234812165488,-0.4402427175729074,-0.507882369326566,0.0926463230926328,-8.783296585083008,-0.0188853779777149,-0.0021010852250895,-0.0245433869909066,-0.02992060927094,-0.024964379482582,-0.0354734326972334,-0.049794744272701,-0.051229070444576,-0.0558352235887871,-0.8096284866333008,-0.6946604251861572,-1.200643539428711,-1.5357065200805664,-4.91803789138794,-5.271796226501465,-0.9868567419833824,-1.3081517219543457,-7.690668106079102,-8.055416107177734,-7.800924301147461,-7.591878890991211,-7.707647800445557,-8.05187702178955,-7.620161533355713,-7.766561985015869,-8.081507682800293,-7.818516095479329,-4.110784530639648,-2.2778327465057373,-102.58753,-4.120102882385254,-2.4730865955352783,-4.23671293258667,-1.8843095302581787,-5.204946517944336,-4.97475004196167,-2.2257790565490723,-4.69320366713435,-1.0043210983276367,-4.028758422226867,-2.046768,0.853978,-2.085474,0.852765,-54.69700169597608,-3.3984375,-3.046875,-1.875,-2.915134191513061,-2.6441845893859863,-3.213423490524292,-0.0559054515400871,0.0060332251376791,-0.0707920262070951,-4.00390625,-2.8022723,-2.7976055,-2.7048087,-2.669023,-2.7353845,-2.607216,1,0.6138620390209799,0.5857111974661403,0.6338888592523859,,,,,,,,
A8E,KDPKFEAEYDFPGSGSSSELPLKKGDIVFISRDEPSGWSLAKLLDGSKEGWVPTAYMTPYK,-0.805069924578824,1,-0.2150024120948416,-5.108031741048762,-0.959625244140625,-2.70635986328125,-4.5572357177734375,-3.544940185546875,-2.6305776,-2.4591947,-0.7454047203063965,-0.610025691986084,-4.20445442199707,0.717841386795044,-0.1736351490020752,-2.444861888885498,0.2221212387084961,-0.6771969795227051,-0.4385478496551513,-1.5898640155792236,-6.473045349121094,-125.03162530517578,-5.107707738876343,-5.023282766342163,-5.077708959579468,-4.797303915023804,-0.0390557315614488,-0.0357840818072122,-0.036311111752949,-0.0357073583300151,-0.0269220916051713,-3.77317769509103,-0.359665495748775,-0.4400149520863519,0.1110887659222884,-8.663576602935791,0.0047793779216829,0.0098200313380507,0.0009086483814679,0.0011960639328252,-0.0001886086385756,-0.0050105110543674,-0.0259470079765945,-0.0308512703317109,-0.0336695186427382,-1.4586443901062012,-0.3204011917114258,1.5242109298706057,0.7788715362548828,-4.604609489440918,-3.779865264892578,-1.0063090089891775,-1.3310374021530151,-5.92138147354126,-6.35545015335083,-6.73093318939209,-5.874651908874512,-6.48068380355835,-6.271200656890869,-7.212128162384033,-5.94480562210083,-6.5916595458984375,-6.375877221425374,-2.7773983478546143,-1.424095630645752,-101.6054,-1.3675991296768188,-1.3613977432250977,-3.0602240562438965,0.1512618064880371,-2.6420788764953613,-4.37089204788208,-0.8233137130737305,-4.01766962479336,-0.8731753826141357,-0.749294425940339,-1.126212,1.179881,-1.081829,1.20612,-54.016398357862016,-2.62890625,-1.984375,-1.125,-0.7137136459350586,-2.156045436859131,-1.6708877086639404,-0.0289992035412396,0.0714859258933144,-0.126771020107582,-2.0859375,-2.7914085,-2.7755065,-2.6935668,-2.6499915,-2.7150888,-2.6030064,1,1.4491803944229138,1.390915438589743,1.5116927337119543,,,,,,,,
A8F,KDPKFEAFYDFPGSGSSSELPLKKGDIVFISRDEPSGWSLAKLLDGSKEGWVPTAYMTPYK,-0.7361347471277848,1,-2.300322302703467,-5.344161542780967,-2.602783203125,-4.341470336914062,-6.8035736083984375,-5.3625335693359375,-2.6314802,-2.4504614,-2.3154592514038086,-1.8573112964630127,-4.272459030151367,-1.1389670372009275,-1.0759602069854737,-1.1423673629760742,-0.409886360168457,-1.583834171295166,-3.52335524559021,-5.537622451782227,-10.296109199523926,-127.19791160583496,-5.068922519683838,-4.940867424011231,-5.102606058120728,-4.780436754226685,-0.0388075472816588,-0.0357069609657166,-0.0362166677202497,-0.0358197745822724,-0.0277019606696234,-5.3167170521088,-0.4346532847465386,-0.507882369326566,0.039101638685543,-8.599917888641357,0.0239471685690957,0.002441656394083,0.0182718996141777,-0.0146410582495519,-0.0200276609326972,-0.0172333013815959,-0.0464899031842341,-0.0442591807881338,-0.048041859611136,-1.0958006381988523,-0.1876313686370849,-0.459930419921875,0.5628046989440918,-9.053833961486816,-8.443723678588867,-1.1002603749759865,-1.3852537870407104,-9.691920280456545,-9.017606735229492,-9.349891662597656,-8.465036392211914,-8.843792915344238,-8.974143028259277,-10.05281925201416,-9.425078392028809,-9.251349449157717,-9.230181905958387,-5.47226619720459,-1.7856955528259275,-101.966675,-1.5439720153808594,-3.2855544090271,-5.402243614196777,-2.3488070964813232,-2.8177924156188965,-6.088036060333252,-2.754014492034912,-5.59556678480735,-1.2265772819519043,-4.028758422226867,-3.838838,0.640743,-3.253668,0.688141,-55.42766793426704,-5.4140625,-2.546875,-2.1875,-3.0020768642425537,-3.7706103324890137,-3.018446683883667,0.0130172479348105,-0.1967868492251536,-0.2407834412621672,-4.91796875,-2.8048685,-2.7375946,-2.6509268,-2.6440456,-2.699184,-2.5735083,1,1.518115571873953,1.4882077320725886,1.558740702142786,,,,,,,,
A8G,KDPKFEAGYDFPGSGSSSELPLKKGDIVFISRDEPSGWSLAKLLDGSKEGWVPTAYMTPYK,-1.1563775833104186,0,-2.811106226658952,-5.525483667528988,-3.2428741455078125,-5.202288818359375,-6.3832855224609375,-5.205010986328125,-2.6471152,-2.4630141,-2.282436847686768,-2.331941843032837,-5.072630882263184,-2.1439361572265625,-2.1321957111358643,-2.271411418914795,-2.329477310180664,-2.114047050476074,-3.054889440536499,-4.034497261047363,-5.786904811859131,-126.0299196472168,-5.210737943649292,-5.019631624221802,-5.046587705612183,-4.835909128189087,-0.0402184781574067,-0.0360280729475475,-0.0365240517116728,-0.0362733640368022,-0.0270300621078127,-5.41793315123792,-0.3435812296122237,-0.3795742330727412,0.0598222189862615,-8.657378435134888,-0.0408230140560961,-0.0253182082879739,-0.0204619110607708,-0.0459247026287144,-0.0389952112416749,-0.0367000142081839,-0.0554180457943775,-0.0532388530793737,-0.0522859291952165,-2.0031628608703613,-0.2772819995880127,-2.442233085632324,-0.8255448341369629,-7.562460899353027,-5.576922416687012,-1.0205314511158428,-1.3195480108261108,-10.377359390258787,-8.403804779052734,-9.035674095153809,-8.60136604309082,-8.453648567199707,-9.237981796264648,-8.538969039916992,-9.087972640991213,-8.669547080993652,-8.934035936991373,-3.4485023021698,-2.223525047302246,-102.03504,-2.56799864768982,-4.760747909545898,-5.845836639404297,-6.530722618103027,-3.320565223693848,-5.462857246398926,-3.927206516265869,-5.77883868506953,-1.1018309593200684,-4.028758422226867,-4.029323,0.639888,-3.123119,0.72554,-53.6527029582066,-3.4140625,-2.109375,-2.5625,-2.939441442489624,-2.6525750160217285,-3.170483350753784,-0.1201434526287141,-0.1238235723776894,-0.2120053650902922,-4.94921875,-2.8112595,-2.7727942,-2.695182,-2.671864,-2.7066913,-2.5913706,1,1.0978727356913192,1.0748484963415224,1.129775358217889,,,,,,,,
A8H,KDPKFEAHYDFPGSGSSSELPLKKGDIVFISRDEPSGWSLAKLLDGSKEGWVPTAYMTPYK,-0.9144913616126114,1,-1.7364391308123397,-5.958121855231411,-2.534164428710937,-4.1187255859375,-6.402069091796875,-4.97540283203125,-2.6544273,-2.465798,-2.419642925262451,-1.8898452281951903,-5.00624942779541,-1.9051156044006348,-1.892702150344849,-3.322333812713623,-1.3128252029418943,-1.221531867980957,-2.514096975326538,-4.0847368240356445,-10.208561897277832,-123.18687562561036,-5.109042882919312,-5.008891820907593,-5.124019145965576,-4.847821235656738,-0.039436001626272,-0.0359614292780558,-0.0361138922827584,-0.0362353779020763,-0.0272759378902495,-4.02546674680043,-0.4369703220373788,-0.507882369326566,0.0965201154503268,-8.54440450668335,-0.0208372522573001,-0.0237453022941214,-0.0077585939501152,-0.0306501544889856,-0.0296234381003457,-0.0260517558113473,-0.0474626509869684,-0.0448862294681735,-0.0475777172651448,-2.5483527183532715,-1.0878081321716309,-1.1512327194213867,-0.8221712112426758,-7.151465892791748,-7.025773048400879,-1.094127592493276,-1.3131048679351809,-9.524352073669434,-7.73296594619751,-8.91796588897705,-7.6392951011657715,-8.287760734558105,-8.107794761657715,-10.23074722290039,-8.66831111907959,-8.512983322143555,-8.624686347113716,-5.31977128982544,-1.5350759029388428,-102.25459,-2.740354299545288,-3.4609155654907227,-5.307436466217041,-2.760493993759156,-4.384676456451416,-5.735675811767578,0.499330997467041,-5.43394625155137,-1.1562714576721191,-4.028758422226867,-3.199396,0.76247,-2.540485,0.831018,-55.64259553266071,-4.5859375,-3.046875,-2.625,-3.924534559249878,-2.4168505668640137,-3.368626356124878,-0.0293343966124486,0.0556075299372436,-0.0930993752401385,-5.453125,-2.8225763,-2.786892,-2.693081,-2.6676373,-2.739394,-2.6053357,1,1.3397589573891264,1.2819284049286288,1.402700952122113,,,,,,,,
A8I,KDPKFEAIYDFPGSGSSSELPLKKGDIVFISRDEPSGWSLAKLLDGSKEGWVPTAYMTPYK,1.1112159895365008,1,1.6871208002776872,-2.578613297373522,1.4503936767578125,-0.1680206298828124,-1.5173492431640625,-0.6123199462890625,-2.6410363,-2.4513001,0.0047359466552734,0.860501766204834,-1.1336338520050049,1.39884614944458,1.6880588054656982,0.6567301750183105,3.117344617843628,1.7586228847503662,0.3499081134796142,-1.1623334884643557,-6.914793014526367,-120.50160284423828,-4.995795965194702,-4.892660856246948,-5.048971891403198,-4.661025047302246,-0.0383319192462497,-0.0350573668404231,-0.0350589392677186,-0.0357414786777799,-0.0263865741472395,-2.44479020347784,-0.3300264535282964,-0.4400149520863519,0.1978952557637466,-8.410849809646606,0.0937871463963244,0.0342803704934042,0.0473625308177509,0.0555312359919311,0.0291102675140881,0.0336910310338753,0.0096910195272477,-0.0002534584920913,6.803919057363217e-05,0.0743720531463623,0.4526503086090088,3.4282822608947754,2.5408928394317627,-5.622058868408203,-4.485656261444092,-1.0179713514984632,-1.323552489280701,-5.444291591644287,-4.156826496124268,-6.222311496734619,-4.79617977142334,-4.837225914001465,-3.987767219543457,-5.703577995300293,-4.231388568878174,-5.23430061340332,-4.957096629672581,-0.7007158398628235,0.9642664790153505,-99.16486,1.958348274230957,-0.7106897830963135,-0.3620223999023437,0.1640777587890625,-0.0324668884277343,-1.9385044574737549,0.5736842155456543,-2.60968221534717,-0.3045361042022705,-0.0765498973835377,0.300091,1.719898,-0.14721,1.708079,-53.95595136938482,-1.078125,0.375,1.3828125,1.2214791774749756,-0.085557222366333,-0.3050322532653808,0.0543025282562754,-0.0697319155833762,0.0632847019883451,-0.158203125,-2.7801743,-2.7304993,-2.6388412,-2.626875,-2.6717029,-2.553857,1,3.3654663085382386,3.299087520108684,3.421671278201275,,,,,,,,
A8K,KDPKFEAKYDFPGSGSSSELPLKKGDIVFISRDEPSGWSLAKLLDGSKEGWVPTAYMTPYK,0.8251661860480315,1,1.0443141286406084,-2.068598637371906,0.4222564697265625,-1.160418701171875,-2.4234771728515625,-1.3941619873046875,-2.6204214,-2.4615579,0.5140252113342285,0.782492733001709,-2.077431917190552,0.8393998146057129,0.3094338893890381,-1.2044265270233154,1.63895845413208,1.272456407546997,0.8169901371002197,0.723597526550293,-6.888406753540039,-121.51396697998048,-5.077024936676025,-4.974059820175171,-5.064091682434082,-4.782107591629028,-0.0386999902271089,-0.0353573125506204,-0.0356967941163078,-0.0355066836826385,-0.0266876362618945,-2.93621467030978,-0.3110924381876697,-0.4400149520863519,0.1446855698405574,-8.635558843612671,0.012182016841701,0.0086095841204534,0.011089762703317,0.0177229584240521,0.0157823406282018,0.013959165479316,-0.0044363678478803,-0.0056714542576522,-0.0096608771652473,-1.5757675170898438,-0.1352083683013916,2.5530059337615967,1.1252484321594238,-2.2833638191223145,-2.2948622703552246,-0.9309229616258964,-1.2347962856292725,-4.741971015930176,-5.832885265350342,-5.379751205444336,-4.750288963317871,-5.514679431915283,-5.378188133239746,-5.690493583679199,-5.930096626281738,-4.393805980682373,-5.290240022871229,0.0204919148236513,1.9998304843902588,-100.04395,1.6863722801208496,-3.14699649810791,-1.8780092000961304,0.0187799930572509,-1.6029291152954102,-2.5110859870910645,3.454156875610352,-3.24113171891375,-0.4278316497802734,0.2407019961267485,0.242616,1.612016,0.445679,1.683638,-54.29746595644016,0.0859376192092895,0.875,1.25,0.2849352359771728,0.7415425777435303,1.917068719863892,0.0193736592277153,0.0119091096471568,-0.1243086017546106,-2.048828125,-2.8088765,-2.7809825,-2.6822789,-2.653282,-2.7007718,-2.5809946,1,3.0794165050497693,2.989734973970359,3.1220033855635863,,,,,,,,
A8L,KDPKFEALYDFPGSGSSSELPLKKGDIVFISRDEPSGWSLAKLLDGSKEGWVPTAYMTPYK,1.7877705519806444,1,3.288012799185415,-0.0792889816220849,3.4836578369140625,1.88223876953125,-0.3214569091796875,1.25955810546875,-2.6155436,-2.4337063,1.4145015478134155,2.161550784111023,0.1453940272331237,3.1146695613861084,3.4145050048828125,0.5819714069366455,4.115601539611816,3.038001775741577,1.7357158660888672,1.4818575382232666,-2.7660562992095947,-118.48682521057128,-4.940723657608032,-4.875143051147461,-4.999175548553467,-4.630648136138916,-0.0381133234690106,-0.0347956324380541,-0.0349712012306092,-0.0352128460293724,-0.0261532560227409,-1.87128844994456,-0.2995914012717938,-0.4400149520863519,0.21648675848138,-8.408973932266235,0.1168908291175718,0.0417694341940957,0.0524315755875384,0.0811122206390879,0.0488307515128714,0.0526904747134349,0.0306884890697041,0.01992922923604,0.0204016888727907,0.5107190608978271,0.4474549293518066,3.675462484359741,4.7433857917785645,-3.64033555984497,-3.079190731048584,-0.9674882732453892,-1.3186982870101929,-4.307852745056152,-4.621516227722168,-4.833675384521484,-3.401885986328125,-4.365321636199951,-4.135618209838867,-4.608704566955566,-4.719643592834473,-4.391481876373291,-4.376189019944933,0.2461717575788498,2.2234947681427,-98.17133,1.9344666004180908,-0.1606130599975586,-0.4793486595153808,2.652655124664306,2.207364559173584,-1.549881935119629,4.061140060424805,-2.11503819052727,0.0969388484954834,2.568446017335985,0.306089,1.963475,1.157142,2.120418,-53.355789317515,0.6796876192092896,1.875,2.5,2.5661520957946777,1.9935896396636963,2.290426731109619,0.0695022833151894,-0.0071881403688527,0.2015303314709271,0.361328125,-2.7765613,-2.7168672,-2.6282325,-2.6096067,-2.662979,-2.5419455,1,4.042020870982382,4.002535985855516,4.080089455575002,,,,,,,,
A8M,KDPKFEAMYDFPGSGSSSELPLKKGDIVFISRDEPSGWSLAKLLDGSKEGWVPTAYMTPYK,1.7194654194611592,1,0.913453213374275,-2.1057867729396094,0.3867950439453125,-1.0866424560546877,-2.4725341796875,-1.3144775390625,-2.6417742,-2.4489918,-0.2580056190490722,0.280619478225708,-2.274787664413452,0.8267457485198975,0.9927868843078612,-1.4268510341644287,1.1208858489990234,0.0171513557434082,-0.7493946552276611,-0.4037127494812011,-5.3698320388793945,-120.413555267334,-5.047465085983276,-4.961440086364746,-5.082539081573486,-4.7285685539245605,-0.0387189142287723,-0.0352695688368782,-0.0355433622996012,-0.0357094624685862,-0.0265683143857925,-2.2225173896385,-0.3363027754109096,-0.4400149520863519,0.1657535248473482,-8.482107639312744,0.0730837212234247,0.0090150676789833,0.0116031834336578,0.0409524636190445,0.0122189130939422,0.0132607631996028,0.0004151766417456,-0.0107780831759092,-0.0105258754042328,-1.0308847427368164,-1.443082332611084,0.7272205352783203,1.3287498950958252,-4.557485103607178,-5.607222080230713,-0.9949540310218686,-1.3145912885665894,-6.989824771881104,-7.125639915466309,-8.340723991394043,-6.710809230804443,-6.61722993850708,-6.54620361328125,-7.637458801269531,-6.800246715545654,-6.872958660125732,-7.071232848697239,-1.3068640232086182,-0.5988320112228394,-100.33546,0.5162362456321716,-2.450228691101074,-4.330813884735107,0.1280460357666015,-1.2324581146240234,-3.341090679168701,2.308643341064453,-2.41912551709769,-0.6290936470031738,-0.0120255114177642,-1.673074,1.408179,-1.045886,1.500227,-54.722550176018686,0.1015626192092895,-0.25,0.5,-1.3441760540008545,-0.4595918655395508,0.2409274578094482,0.0367821865394466,-0.0295215043865266,-0.256749887935451,-0.619140625,-2.8082886,-2.7592654,-2.675814,-2.6325178,-2.694851,-2.5845213,1,3.973715738462897,3.867061598790239,4.072815967575912,,,,,,,,
A8N,KDPKFEANYDFPGSGSSSELPLKKGDIVFISRDEPSGWSLAKLLDGSKEGWVPTAYMTPYK,-0.5685804286537797,1,-0.9087060605284024,-3.2638055248935416,-1.5294342041015625,-3.568475341796875,-4.990737915039063,-3.8915863037109375,-2.6404767,-2.4350424,-1.4269685745239258,-1.0475776195526123,-4.683170318603516,-1.5891013145446775,-1.2280697345733642,-3.301074504852295,-0.8715028762817383,-1.172673225402832,0.013467788696289,-1.2207658290863037,-6.5377197265625,-124.72459176635742,-5.118945837020874,-5.024436473846436,-5.106873512268066,-4.845221996307373,-0.0396116271851554,-0.0359074936972724,-0.0363123738576495,-0.0359613725117274,-0.0270018208594549,-3.8236665657273,-0.4001248885531314,-0.507882369326566,0.1130319953276347,-8.430673599243164,-0.015819737168609,-0.0160683803871029,-0.0254226434426227,-0.0155064317046618,-0.0155972340067878,-0.0214309692382812,-0.0343450952748783,-0.0346874799884732,-0.0388046014504355,-1.7524466514587402,-0.896953821182251,-0.7099409103393555,-1.092216968536377,-4.413166999816895,-4.472771644592285,-1.0062511006339652,-1.34522807598114,-5.245925426483154,-6.112992286682129,-7.182108879089356,-5.616004943847656,-6.719161510467529,-5.692614555358887,-6.056521892547607,-6.396368980407715,-5.840164661407471,-6.0957626236809626,-2.849656820297241,-0.4858715534210205,-100.897285,-2.9469544887542725,-3.358035087585449,-4.018295764923096,-1.3452718257904053,-3.924354076385498,-2.636849164962769,-0.9207019805908204,-4.10034238948812,-0.5352315902709961,-1.120387038915131,-1.065096,1.141731,-0.411017,1.248274,-54.69691524935392,-1.341796875,-1.234375,0.0,-2.4582364559173584,-1.1354219913482666,-1.1725618839263916,-0.0352230384701588,-0.1066069055776126,-0.1184209604732324,-3.80078125,-2.81597,-2.7914472,-2.7017677,-2.651753,-2.718922,-2.604857,1,1.685669890347958,1.6611154775709736,1.7310498831314145,,,,,,,,
A8Q,KDPKFEAQYDFPGSGSSSELPLKKGDIVFISRDEPSGWSLAKLLDGSKEGWVPTAYMTPYK,0.2593760587681952,1,0.1374020490086687,-4.025957800384276,-0.6731414794921875,-2.410333251953125,-4.3877716064453125,-3.4286468505859373,-2.6306012,-2.461712,-0.2650747299194336,0.1247037887573242,-3.566944360733032,-0.3423528671264648,-0.2414711475372314,-3.082322597503662,0.7884516716003418,0.0079877376556396,-0.0446171760559082,0.918337106704712,-4.915321826934815,-121.92823083496094,-5.086971759796143,-4.9967546463012695,-5.079894542694092,-4.797795534133911,-0.0389614502588907,-0.035645498169793,-0.0360055991581508,-0.0358943598611014,-0.0270668306047954,-3.75337486288707,-0.3311224403232155,-0.4400149520863519,0.1386902728080366,-8.74963092803955,0.005161473008453,-0.0038763577820826,-0.0044242983958759,0.0041327554671488,0.0001417066230149,-0.0027050581134733,-0.0258203099985591,-0.0275852015761077,-0.0316209011390561,-2.384636402130127,-0.9694628715515136,1.1779320240020752,0.3808631896972656,-3.909820795059204,-3.697615623474121,-0.9869252814621222,-1.3455841541290283,-6.6202073097229,-6.199206352233887,-6.48806619644165,-5.825414180755615,-6.323466300964356,-6.231823921203613,-6.51051139831543,-6.71217155456543,-5.659704208374023,-6.285619152916802,-1.6718772649765017,-0.3692331612110138,-100.87938,-1.3849626779556274,-1.756201982498169,-3.636780261993408,1.3224170207977295,-2.8712477684021,-3.542578220367432,0.4291925430297851,-3.99140586509697,-0.7075197696685791,-0.643415704841211,-1.286338,1.177069,-0.489286,1.298181,-54.51337016442979,-1.0546875,-0.75,-0.5,-1.0169923305511477,0.1132004261016845,0.0476372241973876,-0.0099344722560195,-0.0251267229924438,0.0134524986392161,-2.65234375,-2.8095508,-2.7961338,-2.6901274,-2.646949,-2.7206502,-2.6059139,1,2.513626377769933,2.4724788424700472,2.550872052994026,,,,,,,,
A8R,KDPKFEARYDFPGSGSSSELPLKKGDIVFISRDEPSGWSLAKLLDGSKEGWVPTAYMTPYK,0.4423721873556125,1,0.1043463421075661,-3.613062384738441,-0.740234375,-2.580029296875,-4.21282958984375,-3.033624267578125,-2.62817,-2.4702232,-0.3991122245788574,-0.0694123744964599,-3.143078088760376,-0.2197844982147216,-0.2317205429077148,-0.6103363037109375,1.0172114372253418,0.5850863456726074,-1.0493886470794678,-1.2433092594146729,-6.545253276824951,-120.95927108764648,-5.059103012084961,-4.974538803100586,-5.062240839004517,-4.77857780456543,-0.038847872189113,-0.0355924519281538,-0.0357662704255845,-0.035685138096885,-0.0269658527677021,-3.17584484147614,-0.3367505945444642,-0.4400149520863519,0.1171601202969847,-8.651985168457031,-4.552622310449728e-05,0.0115827966908939,0.006196569223873,0.001783652383773,0.0078052458215933,0.0016251861071978,-0.0225890738065125,-0.019616799276383,-0.0262269192054623,-1.7900290489196775,-0.1263189315795898,1.4199812412261963,0.8675036430358887,-3.469925880432129,-3.685287952423096,-0.9728452338547005,-1.3351908922195437,-8.08512020111084,-7.022977352142334,-6.772205352783203,-6.548694610595703,-7.159593105316162,-7.390542030334473,-8.281673431396484,-8.045916557312012,-6.664591312408447,-7.330145994822184,-1.225531816482544,0.4493559002876282,-100.596725,0.058448776602745,-3.805613040924072,-4.120543479919434,-1.570016622543335,-4.044670581817627,-3.627488136291504,-0.2027163505554199,-3.48547924395454,-0.6988875865936279,-0.6049473392636419,-1.370493,1.218921,-0.383629,1.363166,-54.61617538651192,-0.546875,-0.375,-0.875,-1.4933230876922607,-0.876840353012085,0.1655473709106445,-0.019319127817623,-0.2257030049308404,-0.0579173603995903,-3.1171875,-2.809946,-2.7664528,-2.6810284,-2.6561003,-2.7049408,-2.5952272,1,2.6966225063573503,2.663910914395731,2.733747368242049,,,,,,,,
A8S,KDPKFEASYDFPGSGSSSELPLKKGDIVFISRDEPSGWSLAKLLDGSKEGWVPTAYMTPYK,-0.5559979766084433,1,-0.7850718616985385,-3.2939318688186177,-1.307464599609375,-3.113214111328125,-4.665374755859375,-3.613839721679688,-2.6189597,-2.46883,-0.2625236511230469,-0.3179831504821777,-3.7853291034698486,-0.7492547035217285,-0.5314288139343262,-1.6892857551574707,-0.357663631439209,-0.7332239151000977,-0.5325257778167725,-2.120872259140014,-5.527667999267578,-122.58209548950197,-5.074963569641113,-4.9989173412323,-5.048757314682007,-4.821815729141235,-0.0392177956444876,-0.0355090092098902,-0.0359957615534464,-0.0360013965576414,-0.0265003754979088,-3.85733229192864,-0.2862597102081168,-0.3261368561762679,0.1738826016962368,-8.678963661193848,-0.0036834966940957,0.0025609751216699,-0.0083648181352458,-0.008520407754867,-0.0062074504914828,-0.0121740122310449,-0.0310677074995197,-0.0310303109591123,-0.0345583431056288,-1.6190447807312012,-0.1105661392211914,0.3623046875,0.1419801712036132,-3.6751418113708496,-3.1048662662506104,-0.9566069430992252,-1.2964812517166138,-6.5445075035095215,-6.450472831726074,-6.521549701690674,-6.330400466918945,-5.762786388397217,-6.27448034286499,-6.718750476837158,-6.219715118408203,-6.211747646331787,-6.3371567196316185,-1.428971767425537,-1.1705272197723389,-100.53413,-1.1736493110656738,-2.3496246337890625,-3.27207899093628,0.7997426986694336,-2.4407315254211426,-3.404723644256592,-0.9822511672973632,-4.24078427565682,-0.6890935897827148,-1.992197573251512,-0.839734,1.202969,-0.466034,1.277169,-53.15338648379044,-1.2890625,-0.875,-0.25,-1.0897090435028076,-0.9512460231781006,-1.252650022506714,-0.017730712890625,-0.1466959968942109,-0.1374339119332734,-2.61328125,-2.8008368,-2.7781534,-2.6993287,-2.6443849,-2.6992536,-2.590388,1,1.6982523423932945,1.6256427431538767,1.7644249184782046,,,,,,,,
A8T,KDPKFEATYDFPGSGSSSELPLKKGDIVFISRDEPSGWSLAKLLDGSKEGWVPTAYMTPYK,-0.4975793784946714,1,0.2509784518811047,-3.579257136039814,-0.1809234619140625,-1.970977783203125,-3.964813232421875,-2.946722412109375,-2.6229064,-2.4876568,-0.4447426795959472,-0.0905467510223388,-3.711807012557984,0.0267512798309326,0.5109885692596435,-1.220473289489746,1.184612274169922,0.4354617595672607,0.1663136482238769,-2.071448564529419,-7.212460994720459,-121.8924027709961,-5.055521011352539,-4.983197927474976,-5.054373502731323,-4.785013437271118,-0.0387757940897865,-0.0354655205257355,-0.0357530211645459,-0.0359646100846547,-0.0263259344630771,-3.64750804569411,-0.3024350904653685,-0.3795742330727412,0.1888092389258714,-8.640793561935425,0.0203646050124872,0.0037964367475666,0.0008661238873592,0.0095029737128584,0.0022969480420722,-0.0012303336721952,-0.0194395721935835,-0.0222178599873525,-0.0260774581158746,-1.3892669677734375,0.0072205066680908,2.43603515625,1.6435329914093018,-3.1766958236694336,-3.246249198913574,-1.0022959474657402,-1.2799667119979858,-6.077672481536865,-5.833861827850342,-5.783159255981445,-5.886820316314697,-5.277862071990967,-5.633883953094482,-5.513490676879883,-5.940194606781006,-5.835234642028809,-5.753575377994114,-1.4666575193405151,-0.3045597374439239,-99.91668,0.4072160422801971,-2.2143454551696777,-1.3546777963638306,1.8676681518554688,-1.402761697769165,-2.295659303665161,2.99761962890625,-4.07712520604678,-0.4597558975219726,-0.7450150760722603,-0.287278,1.351303,-0.461388,1.364342,-53.517432839631375,-1.74267578125,-0.4375,0.125,1.095170021057129,-1.243117332458496,-1.1589200496673584,0.0179105664862961,0.0041744044569669,-0.1148193859663164,-3.2421875,-2.8000922,-2.7693675,-2.6795356,-2.6400404,-2.695189,-2.5759945,1,1.7566709405070664,1.7013791240897884,1.8746402596131928,,,,,,,,
A8V,KDPKFEAVYDFPGSGSSSELPLKKGDIVFISRDEPSGWSLAKLLDGSKEGWVPTAYMTPYK,0.5236152764087754,1,1.2631916585257537,-2.69063547548285,0.68572998046875,-0.8458038330078125,-2.4395751953125,-1.0991058349609375,-2.6377604,-2.4480386,0.0205078125,0.4689859390258789,-1.808793544769287,1.0901002883911133,1.5020272731781006,1.3395898342132568,2.603689432144165,1.660151481628418,0.6381886005401611,-1.2589304447174072,-6.591930389404297,-120.89768424987793,-5.00409722328186,-4.908966064453125,-5.058925628662109,-4.6648030281066895,-0.038326102589804,-0.0349914195045592,-0.035186731626117,-0.0357364018758138,-0.0260027760551089,-2.49808558517559,-0.2976037516260917,-0.3795742330727412,0.2536910841069337,-8.54733943939209,0.0834920914446721,0.0382431530561604,0.0416318549484504,0.0473508991178919,0.0266711125608349,0.0275715061875638,0.0045461185642931,-0.0039470860215483,-0.0043034788037911,0.583013653755188,0.5995686054229736,3.0267107486724854,2.149405241012573,-4.7964768409729,-4.03830623626709,-1.0331915558361615,-1.3290935754776,-4.521404266357422,-3.5803792476654053,-5.703651905059815,-4.43904447555542,-4.710309505462647,-4.039290428161621,-5.600269317626953,-4.337403297424316,-4.037777423858643,-4.552169773313734,-1.0974915027618408,0.40312260389328,-99.24409,2.331670999526977,-0.312116265296936,-1.1189292669296265,0.5393631458282471,-0.3528308868408203,-2.442574977874756,0.0959997177124023,-2.72985023602712,-0.4251670837402344,-0.1498025479931099,1.051242,1.74071,0.174537,1.686705,-53.381796990373616,-1.18359375,-0.4375,0.125,0.4951591491699219,-1.0325050354003906,-0.606830358505249,0.0441089067302766,0.0583663690285605,0.2156889868564291,-1.015625,-2.7752194,-2.7215848,-2.6466026,-2.6211576,-2.6654682,-2.5551429,1,2.777865595410513,2.7224695154735192,2.834712220270381,,,,,,,,
A8W,KDPKFEAWYDFPGSGSSSELPLKKGDIVFISRDEPSGWSLAKLLDGSKEGWVPTAYMTPYK,-0.9607306803173876,1,-5.23717291038377,-8.281896962251352,-5.119171142578125,-6.891839599609375,-8.29095458984375,-7.02586669921875,-2.642992,-2.4988008,-3.854698657989502,-3.4795339107513428,-7.327479362487793,-2.3651132583618164,-2.9404131412506103,-2.889853954315185,-2.8717002868652344,-3.4806604385375977,-5.569921493530273,-8.33539867401123,-12.722028732299805,-128.14155729675292,-5.188313722610474,-5.102318048477173,-5.16223931312561,-4.849435806274414,-0.0396614982968284,-0.0365598466661241,-0.0369210281069316,-0.036894713129316,-0.0291825428841606,-5.76320941631162,-0.5432766036439169,-0.583508198999511,0.0229809080836678,-8.689143896102905,-0.0425406284019593,-0.0243390192751025,-0.0182696483174307,-0.0708844544457607,-0.0579333696209014,-0.0609167130267034,-0.0786112175613152,-0.0689115680632043,-0.0765047542384413,-2.831528186798096,-1.527719020843506,-2.707400321960449,-0.7143311500549316,-9.17897891998291,-9.917722702026367,-1.1285658039030482,-1.402854561805725,-13.17933464050293,-11.557973861694336,-11.587918281555176,-10.422807693481444,-10.886451721191406,-11.532326698303224,-12.256139755249023,-11.942499160766602,-10.190513610839844,-11.506218274434408,-7.629875659942627,-3.096339464187622,-104.20473,-1.8820273876190183,-3.3479461669921875,-4.9411163330078125,-0.9087321758270264,-2.6235313415527344,-7.009748458862305,-2.304527759552002,-6.06852620003739,-1.411430835723877,-4.028758422226867,-5.300619,0.261469,-4.63985,0.292235,-57.03713670052193,-6.3828125,-4.125,-4.84375,-5.361811399459839,-6.335115909576416,-5.853210210800171,-0.0535861156025871,-0.3548646520395748,-0.3180612032530736,-7.9609375,-2.8183465,-2.7591496,-2.6849914,-2.6638165,-2.7220056,-2.581005,1,1.2935196386843502,1.242996817957804,1.4086535374533595,,,,,,,,
A8Y,KDPKFEAYYDFPGSGSSSELPLKKGDIVFISRDEPSGWSLAKLLDGSKEGWVPTAYMTPYK,-0.8838670581505648,1,-4.185386874351398,-7.686736363158161,-4.48345947265625,-6.372628784179687,-7.519622802734375,-6.434246826171875,-2.6421092,-2.4698136,-2.6663222312927246,-2.28938775062561,-5.077737808227539,-1.0357203483581543,-1.6910034656524655,-1.5802278518676758,-1.3731889724731443,-2.3940749168396,-4.596848487854004,-6.618168830871582,-12.55257797241211,-128.0644779815674,-5.102051496505737,-4.984827756881714,-5.125075340270996,-4.826778888702393,-0.0390984709300692,-0.03602791778625,-0.0364607496867104,-0.0361597443383837,-0.0278540263100275,-5.93943228784623,-0.4556660752126968,-0.507882369326566,0.0337481283162135,-8.505379915237427,-0.0060978873831325,-0.0018554437355917,0.0036613589427509,-0.051822349673412,-0.0445038842373206,-0.048035168256916,-0.0682241095871222,-0.0599479675292968,-0.0680806519555263,-1.522410869598389,-0.4123778343200683,-1.0881948471069336,-0.4262709617614746,-8.979856491088867,-9.50574779510498,-1.1111659065621795,-1.2952815294265747,-10.48156452178955,-9.16811752319336,-10.056918144226074,-9.30362319946289,-9.07614040374756,-9.876955032348633,-11.068857192993164,-10.298565864562988,-9.76541519165039,-9.899573220147026,-6.092271327972412,-2.4220855236053467,-102.7411,-1.217179298400879,-3.064425468444824,-5.563069343566895,-1.1577699184417725,-2.7886948585510254,-6.701652050018311,-2.265897274017334,-6.35395857644995,-1.3498153686523438,-4.028758422226867,-3.701085,0.517072,-3.601213,0.503924,-55.76167310652826,-5.7578125,-3.109375,-2.9375,-4.280410528182983,-3.909224987030029,-4.1858766078948975,0.0140646012102969,-0.2551439629226437,-0.1890508933145493,-6.1640625,-2.802709,-2.7505136,-2.6756396,-2.639648,-2.7061849,-2.5642796,1,1.370383260851173,1.3273693006327223,1.4220824126723646,,,,,,,,
D10A,KDPKFEAAYAFPGSGSSSELPLKKGDIVFISRDEPSGWSLAKLLDGSKEGWVPTAYMTPYK,-1.0814606502657325,0,-2.07542656531094,-4.471451803081436,-3.39862060546875,-3.5253265380859373,-3.677505493164064,-3.918072509765625,-2.6904688,-2.4879625,-4.261544227600098,-4.1292496681213375,-6.495953559875488,-2.356675386428833,-2.7553618431091307,1.3827943801879885,-1.6577579975128174,-4.084017276763916,-3.896057605743408,-3.67668390274048,-10.733562469482422,-126.05351463317872,-5.171477556228638,-5.039487361907959,-5.113605260848999,-4.776952743530273,-0.0397617987224033,-0.0359192878480941,-0.0360191190053546,-0.0368238327995179,-0.0277692921577938,-4.01790922203475,-0.6621585113810091,-0.8907016363534945,0.0759157631865313,-8.563928604125977,-0.0304410340356044,-0.0080839063300461,-0.0096485575691596,-0.0368482245773567,-0.025248918376985,-0.0273108560530865,-0.0407851797635437,-0.0348904093758003,-0.0372442026607326,0.3565142154693603,0.3590757846832275,-1.6951104402542114,-1.4567331075668335,-10.75833511352539,-9.347674369812012,-1.1026691374231556,-1.4056196212768557,-10.227703094482422,-9.008781433105469,-9.50078296661377,-9.378684043884276,-9.500863075256348,-10.777454376220703,-9.351451873779297,-8.574240684509277,-9.18435001373291,-9.5004792743259,-5.302548408508301,-5.08200216293335,-103.57228,0.3111624717712402,-3.957944869995117,-5.682518482208252,-9.725238800048828,-5.581789493560791,-7.489923000335693,-5.1263532638549805,-3.86695783998385,-1.8736608028411863,-2.828594722524454,-5.887753,0.599113,-4.847663,0.668527,-55.17258957159943,-7.56640625,-3.9375,-3.0,-2.4337372183799744,-5.15140051394701,-3.842141449451448,-0.0464702668737193,-0.1840605188588626,-0.0665495825595541,-5.4925537109375,-2.7938802,-2.7811174,-2.6735163,-2.6218781,-2.6911707,-2.5673208,1,1.0486919244400292,1.0152747025192528,1.092971528294583,,,,,,,,
D10C,KDPKFEAAYCFPGSGSSSELPLKKGDIVFISRDEPSGWSLAKLLDGSKEGWVPTAYMTPYK,-1.0883552156259542,0,-6.53456206725939,-9.0105095256568,-8.028228759765625,-7.903488159179687,-9.07720947265625,-9.077127075195312,-2.8427393,-2.5340002,-8.23672866821289,-8.122142219543457,-9.337306022644045,-6.242883682250977,-6.438144016265869,-0.9368929862976074,-4.8903632164001465,-7.896392822265625,-8.005509376525879,-10.240952491760254,-14.10727596282959,-131.40582318115236,-5.177518606185913,-5.070887804031372,-5.177639484405518,-4.858508348464966,-0.0401820587733435,-0.0368370025876968,-0.0368343288936312,-0.0377428191048758,-0.0288612596572391,-4.93082470663559,-0.9137191714911912,-1.0006801026389944,0.026167596740187,-8.718306303024292,-0.1323212170210039,-0.0245712780561602,-0.0260179863601432,-0.1200210071000897,-0.0731087356317237,-0.0770415009045211,-0.102997326460041,-0.0872578855420721,-0.0925344248287014,-1.912017583847046,-1.303469181060791,-4.433859348297119,-3.272002696990967,-16.21031951904297,-11.448286056518556,-1.1355125552318135,-1.4832841157913208,-15.699299812316896,-13.762211799621582,-13.932727813720703,-14.260172843933104,-12.699695587158203,-14.41899585723877,-14.44887638092041,-12.575651168823242,-15.052926063537598,-14.094506475660536,-9.47677993774414,-8.804832458496094,-107.29886,-1.434438705444336,-5.3032331466674805,-6.134993076324463,-10.840065956115724,-8.923453330993652,-10.711490631103516,-9.035789489746094,-4.7111964652978,-2.5514090061187744,-5.611379033087362,-11.203775,-0.664696,-8.517302,-0.477621,-58.5600305890032,-11.171875,-7.75,-8.75,-7.67835396528244,-11.774580903351309,-9.400903522968292,-0.1103152916079661,-0.1574226754610657,-0.1148514044089394,-11.6097412109375,-2.8284707,-2.8284101,-2.7040257,-2.6832352,-2.7248056,-2.6086864,1,1.1425484480716022,1.080614645432696,1.247566526476219,,,,,,,,
D10E,KDPKFEAAYEFPGSGSSSELPLKKGDIVFISRDEPSGWSLAKLLDGSKEGWVPTAYMTPYK,-1.1730796502672982,0,-2.469184369237227,-3.485192042629933,-2.8531036376953125,-2.97060546875,-3.28558349609375,-3.377642822265625,-2.628838,-2.4434319,-2.896406650543213,-3.0160400390625,-6.597173690795898,-2.312223196029663,-2.276215505599976,0.1457319259643554,-1.9234600067138672,-3.759277820587158,-3.700818061828613,-3.541273355484009,-7.864771366119385,-125.06937759399416,-5.189618825912476,-5.106420516967773,-5.113592863082886,-4.820247411727905,-0.0397546007519676,-0.0358529582856193,-0.0358826641052488,-0.0363197913245549,-0.0266735421286688,-2.85641106772851,-0.4631635165565553,-0.530239855719249,0.1660632303222663,-8.612662553787231,-0.0149822547787523,-0.0272100479876407,-0.0060348510742187,-0.0328437930247824,-0.0388924020235657,-0.0302993274125895,-0.0315078360135437,-0.0347373211970094,-0.0324710158051038,-0.3804128170013428,-0.0233073234558105,-1.874637246131897,-1.895975470542908,-8.367384910583496,-6.853982925415039,-1.068011799796683,-1.379594087600708,-9.096702575683594,-8.076924324035645,-8.275181770324707,-7.888583660125732,-7.913073539733887,-8.795003890991211,-8.756096839904785,-7.611354827880859,-9.160486221313477,-8.39704540040758,-4.882637977600098,-4.569077014923096,-102.91611,-0.0149961151182651,-2.524721384048462,-3.224699020385742,-6.747861385345459,-5.436877727508545,-7.729822635650635,-4.245294570922852,-2.6405496101227,-1.9360463619232176,-2.416669264022135,-4.577674,0.815711,-3.254172,0.945647,-54.56815444496648,-5.84375,-3.5,-2.625,-3.1871394515037537,-4.826140828430653,-4.573913872241974,2.1512391137346043e-05,-0.1093442322777922,-0.1825318883676998,-5.3323974609375,-2.8036556,-2.768869,-2.683995,-2.6478367,-2.701798,-2.5810342,1,1.0430595540134786,0.9999071816588848,1.06572187883043,,,,,,,,
D10F,KDPKFEAAYFFPGSGSSSELPLKKGDIVFISRDEPSGWSLAKLLDGSKEGWVPTAYMTPYK,-1.9406208685193496,0,-7.021274014351208,-10.015455002247904,-8.823654174804688,-8.730023193359376,-9.2113037109375,-9.267849731445311,-2.8915632,-2.554356,-7.521384716033935,-7.4131443977355955,-9.188436508178713,-6.066141605377197,-6.581079387664795,0.3567523956298828,-5.090455532073975,-8.131175994873047,-8.800546646118164,-9.330682754516602,-13.79726219177246,-134.9496551055908,-5.273139476776123,-5.085733890533447,-5.140664339065552,-4.914227724075317,-0.0400761857865348,-0.0369791984558105,-0.0368981966896662,-0.0374526674785311,-0.0298595267628866,-6.46166841518795,-0.8946331365121301,-1.0006801026389944,0.0069007068072708,-8.754076719284058,-0.0917699845110782,-0.0164227094806608,-0.0324832103291494,-0.1228785280321465,-0.0895755955430326,-0.0985341306592597,-0.1034953007932569,-0.0920069334936922,-0.097520296690894,-0.994091272354126,0.1325502395629882,-5.367284774780273,-3.465614318847656,-14.48236083984375,-11.456058502197266,-1.1266379434554303,-1.4205400943756104,-14.24056625366211,-14.18913745880127,-15.136917114257812,-13.940808296203612,-13.06352996826172,-16.685983657836914,-16.120744705200195,-14.673480033874512,-14.707337379455566,-14.750945409138998,-8.405425071716309,-8.793951988220215,-108.14764,-0.6141677498817444,-4.651960372924805,-6.149640083312988,-9.63957691192627,-9.42440700531006,-9.526763916015623,-8.69420051574707,-5.63660561518108,-2.3151228427886963,-5.611379033087362,-10.764233,-0.640304,-8.428932,-0.490891,-58.93466130438607,-10.546875,-8.0625,-8.1875,-7.182980716228485,-10.941204018890858,-9.292718708515167,-0.1849615378457989,-0.174137303086578,-0.2812429959656763,-11.3050537109375,-2.7967217,-2.76547,-2.6988506,-2.6729536,-2.7188663,-2.600668,1,0.3267389777133566,0.2987994335041787,0.3516942902360141,,,,,,,,
D10G,KDPKFEAAYGFPGSGSSSELPLKKGDIVFISRDEPSGWSLAKLLDGSKEGWVPTAYMTPYK,-2.024568375368134,0,-3.847662455520077,-7.205618674311154,-5.4037933349609375,-5.637197875976563,-5.944610595703125,-6.352130126953125,-2.6048782,-2.4379287,-5.591548442840576,-5.120287418365479,-7.231183052062988,-3.52055287361145,-4.082240629196167,0.3309001922607422,-2.7403206825256348,-5.348219871520996,-5.717830657958984,-5.133275508880615,-10.883691787719728,-127.83534288024904,-5.173126459121704,-5.059309482574463,-5.078870534896851,-4.815888166427612,-0.0396672695402115,-0.0362046446119036,-0.0359541934634011,-0.0368470748265584,-0.0274400673215351,-5.27411211587513,-0.6760907309101051,-0.7885310515834849,0.0304565045763712,-8.676486015319824,-0.0533362216636781,-0.0285100467869492,-0.0167749123495133,-0.0663000638367699,-0.0512350113665471,-0.0483133284772028,-0.0690189424108286,-0.0593627554471374,-0.0609186516433466,-0.5056171417236328,0.5768709182739258,-3.204433917999268,-2.1376724243164062,-11.557384490966797,-10.25898551940918,-1.1632001282738855,-1.3942281007766724,-12.796873092651367,-11.022819519042969,-11.461162567138672,-11.445765495300291,-11.38361358642578,-13.250967979431152,-12.331793785095217,-11.780876159667969,-11.055818557739258,-11.836632516649034,-6.857836723327637,-6.677470684051514,-104.739845,-0.1236880794167518,-5.489467620849609,-7.203038692474365,-11.555588722229004,-7.485804080963135,-9.033933639526367,-8.419703483581543,-5.178655754715,-2.212547540664673,-5.248600042067677,-7.559145,0.096391,-7.625567,-0.008175,-56.20642906007854,-12.171875,-4.6875,-5.125,-5.272403419017792,-7.141206212341785,-5.495093166828156,-0.0668737692911114,-0.2454346203413169,-0.130830858574539,-6.4339599609375,-2.8247771,-2.8078127,-2.6762202,-2.6257057,-2.7022684,-2.6015353,1,0.0516329995040183,0.0407280712376785,0.0875262526429771,,,,,,,,
D10H,KDPKFEAAYHFPGSGSSSELPLKKGDIVFISRDEPSGWSLAKLLDGSKEGWVPTAYMTPYK,-1.3501951106213603,0,-4.777945346819842,-6.9756175352144965,-6.7329864501953125,-6.529043579101563,-7.008316040039063,-6.9568603515625,-2.6557326,-2.4842572,-6.69101619720459,-6.317622566223145,-8.564454078674316,-4.680713653564453,-5.1697441101074215,-0.8825278282165527,-4.365718364715576,-6.398877143859863,-6.952847003936768,-6.407427787780762,-12.110093116760254,-129.15541326904298,-5.220498085021973,-5.057002782821655,-5.174708604812622,-4.860863208770752,-0.039897292379349,-0.0364981359905666,-0.0364663695532178,-0.0368144114812215,-0.0278893595650082,-3.75638836290137,-0.6964018637555475,-0.7885310515834849,0.0900909222494336,-8.770943880081177,-0.0467071533203125,-0.0302437954261654,-0.0300463066726432,-0.0673115214363473,-0.0597176473648821,-0.0622419763783939,-0.0702968034587921,-0.0677210073002049,-0.0716842276151064,-1.2179911136627195,-0.4813861846923828,-4.188305854797363,-3.255415439605713,-11.519041061401367,-8.935212135314941,-1.0590493874471696,-1.4081158638000488,-14.648920059204102,-13.214179039001465,-14.166070938110352,-12.50864601135254,-13.019905090332031,-14.545001983642578,-13.363024711608888,-13.891627311706545,-12.554821968078612,-13.54579978519016,-7.205955982208252,-7.197042465209961,-106.2425,-1.0606294870376587,-5.316937446594238,-6.114807605743408,-9.99134349822998,-6.710081100463867,-9.299053192138672,-8.883563995361328,-5.16485968086886,-2.2673356533050537,-5.331662461875112,-7.776094,-0.006338,-7.023262,-0.00841,-57.0733920950889,-7.968749523162842,-6.5,-6.5,-6.456727206707001,-8.35087389498949,-7.335408508777618,-0.0776169573674434,-0.0651712886622695,-0.0002946697297643,-8.4456787109375,-2.8158793,-2.8159428,-2.6887536,-2.6701946,-2.7165523,-2.592905,1,0.8376340818325994,0.7851151017478936,0.8638129317362043,,,,,,,,
D10I,KDPKFEAAYIFPGSGSSSELPLKKGDIVFISRDEPSGWSLAKLLDGSKEGWVPTAYMTPYK,-2.786705016796034,0,-8.311705305540753,-10.505667900535856,-9.575332641601562,-9.232147216796877,-9.897308349609377,-9.925881958007812,-2.8910286,-2.555769,-6.9889678955078125,-6.9776914596557615,-9.346652030944824,-6.088009357452393,-6.558895015716553,1.7830376625061035,-5.274024963378906,-7.372464179992676,-8.330681800842285,-7.391136169433594,-13.124916076660156,-133.28289149475097,-5.270254850387573,-5.098775148391724,-5.166710138320923,-4.861457347869873,-0.0401546898342314,-0.0371514520947895,-0.0367861513107542,-0.0377207994461059,-0.0292565604997059,-6.5014970013181,-0.8921174971596225,-1.0006801026389944,0.0130906802831502,-8.592082500457764,-0.0920272577004355,-0.0178863025102458,-0.0385175611152024,-0.1348876953125,-0.0991387289078509,-0.1115398719662525,-0.1138268767810259,-0.0981086981101113,-0.1065062851202293,-1.9442908763885496,0.2575037479400635,-4.919816970825195,-3.280184268951416,-14.86103057861328,-9.3405122756958,-1.141857459896901,-1.447268843650818,-13.327351570129396,-13.085175514221191,-14.030385971069336,-13.48967742919922,-13.047786712646484,-16.870479583740234,-15.27387523651123,-13.156645774841309,-15.213834762573242,-14.166134940253365,-9.314002990722656,-8.35617446899414,-107.26173,-0.2917734980583191,-4.8305253982543945,-6.519845962524414,-11.089600563049316,-10.532209396362305,-10.630130767822266,-8.869950294494629,-6.16474219025007,-2.535762071609497,-5.611379033087362,-10.743879,-0.723419,-8.67861,-0.608714,-58.423237665066296,-9.453125,-7.8125,-7.90625,-6.314758002758026,-9.770929284393787,-9.37135487794876,-0.0743683361616289,-0.2311306312435963,-0.256410192270748,-9.7191162109375,-2.7978249,-2.7758799,-2.7105513,-2.6529927,-2.7162983,-2.5959158,1,-0.6876135592123531,-0.7466572284088475,-0.571107158179822,,,,,,,,
D10K,KDPKFEAAYKFPGSGSSSELPLKKGDIVFISRDEPSGWSLAKLLDGSKEGWVPTAYMTPYK,-2.823673750201546,0,-3.481568937373888,-7.243833521456054,-5.157562255859375,-5.17989501953125,-6.432830810546875,-6.4911956787109375,-2.6161804,-2.4503272,-7.023558616638184,-6.637222385406494,-8.392609596252441,-4.644057273864746,-5.256151008605957,1.5220017433166504,-3.5094447135925293,-6.88881254196167,-6.538378715515137,-7.285402774810791,-12.60897445678711,-130.86606651306153,-5.22907829284668,-5.187762022018433,-5.222046375274658,-4.9666523933410645,-0.039781337692624,-0.0361471838421291,-0.0359579608553931,-0.0369385215971204,-0.0273636494364057,-4.95436076188363,-0.7023454891672279,-0.7885310515834849,0.0247108615224912,-8.474138259887695,-0.0261735759797643,-0.024658953557249,-0.0288855130555198,-0.0480710639328252,-0.0477526305151765,-0.0509025698802509,-0.0603966634781634,-0.0612073804511398,-0.0638897379890818,-0.0136592388153076,0.0246565341949462,-2.889966487884521,-1.81025493144989,-12.641485214233398,-10.217551231384276,-1.117737566838499,-1.419750452041626,-12.846501350402832,-12.150798797607422,-11.798455238342283,-11.50608730316162,-12.130755424499512,-13.39940357208252,-12.273727416992188,-12.790884017944336,-12.459904670715332,-12.372946527269152,-8.621034622192383,-8.56171989440918,-105.82615,-0.1954884827136993,-5.196634769439697,-4.091668128967285,-11.585183143615724,-6.855526447296143,-9.464591026306152,-9.550640106201172,-4.8013941134888,-2.293421030044556,-5.528849733094272,-8.07478,0.020696,-6.792601,0.08198,-56.39285442954843,-9.3515625,-6.4375,-6.4375,-5.349188983440399,-8.80780977755785,-8.35934430360794,-0.0160324847111934,-0.0843843553887038,-0.2316066554335298,-8.8128662109375,-2.8083215,-2.775217,-2.6751003,-2.636392,-2.7080574,-2.5953329,1,-0.5760582896567616,-0.6437785917201252,-0.4745223160846918,,,,,,,,
D10L,KDPKFEAAYLFPGSGSSSELPLKKGDIVFISRDEPSGWSLAKLLDGSKEGWVPTAYMTPYK,-2.668379700116146,0,-6.692602245102391,-9.403248084422728,-8.638687133789062,-8.624334716796875,-9.1334228515625,-9.307427978515625,-2.8837192,-2.545856,-6.36351490020752,-6.187773609161377,-8.447336196899414,-5.076726913452148,-5.562289524078369,2.013293743133545,-4.621982097625732,-7.35649299621582,-8.233476638793945,-7.981196880340576,-14.032621383666992,-132.59296728515625,-5.235078811645508,-5.071313142776489,-5.151818513870239,-4.8275306224823,-0.0399272763539874,-0.0371652974022759,-0.0369998595071217,-0.0376940568288167,-0.0296173644444299,-6.10579429359383,-0.9660213852498584,-1.1181510991880317,0.0145452816052354,-8.82038140296936,-0.0884850924132298,-0.012067325779649,-0.0367350343798027,-0.1138547053102587,-0.0788849377241289,-0.0920824144707352,-0.1031374696825371,-0.0896711505827355,-0.0972373211970095,-0.9639217853546144,0.683699369430542,-4.221609592437744,-2.723323345184326,-14.5767822265625,-12.707990646362305,-1.1560950357405866,-1.4461692571640017,-15.101755142211914,-13.316113471984863,-15.128555297851562,-12.608842849731444,-13.43360710144043,-16.57147216796875,-15.191877365112305,-13.046085357666016,-15.16448211669922,-14.395865864223904,-9.202534675598145,-8.103947639465332,-106.95185,-0.1201587319374084,-4.802117347717285,-6.147857666015625,-11.337481498718262,-9.46271514892578,-10.203694343566896,-9.2677001953125,-5.93365253295853,-2.450406312942505,-5.611379033087362,-9.651983,-0.521089,-8.497192,-0.504894,-57.99304919635264,-11.921875,-8.0,-7.4375,-6.944131076335907,-10.216946549713612,-9.75987035036087,-0.0326675665183144,-0.1432297503361939,-0.1948850037621672,-10.3128662109375,-2.785148,-2.7562966,-2.6912801,-2.6482377,-2.70778,-2.5814342,1,-0.5129210969919807,-0.6170433080577512,-0.4400170534135595,,,,,,,,
